# %ECSV 1.0
# ---
# datatype:
# - {name: wav, unit: Angstrom, datatype: float64}
# - {name: flux_nu, unit: erg / (cm2 Hz s), datatype: float64}
# meta: {C/O: '1.00', Kzz: '1.0000E+05', Teff: '250.', Y: '0.28', '[Fe/H]': '0.00', f_hole: '1.00', f_rain: '0.00', grav: '316.'}
# schema: astropy-2.0
wav flux_nu
4000.0559999999996 nan
4050.0559999999996 1.455947837300024e-19
4100.056 2.8749853689400384e-18
4150.056 1.3525568060500111e-17
4200.056 2.227810533900013e-17
4250.056 8.370137911700053e-17
4300.056 1.7453240023000074e-16
4350.056 3.1201101998000117e-16
4400.056 5.013591084000015e-16
4450.056 7.699956015000022e-16
4500.056 1.231844120160004e-15
4550.056 1.8038709574000037e-15
4600.056 2.1175323456000035e-15
4650.056 2.4230073147000017e-15
4700.056 2.399106802199999e-15
4750.056 2.091126147799997e-15
4800.056 1.7569423830999966e-15
4850.056 1.231627723599995e-15
4900.056 9.035099777799977e-16
4950.056 6.865044076599983e-16
5000.056 4.258487754599973e-16
5050.056 2.655171687299998e-16
5100.056 2.926869476800015e-16
5150.056 3.585591852900005e-16
5200.056 4.329338726700008e-16
5250.056 4.888534538500007e-16
5300.056 5.508712795600007e-16
5350.056 6.224175430200007e-16
5400.056 6.728854199300008e-16
5450.056 7.635988665700024e-16
5500.056 8.901048056200012e-16
5550.056 1.0385465720600015e-15
5600.056 1.1770733158000014e-15
5650.056 1.2904104931000004e-15
5700.056 1.285719452920002e-15
5750.056 1.3436127956000005e-15
5800.056 1.2871610140999987e-15
5850.056 9.224885528599884e-16
5900.056 2.2680654754191076e-16
5950.056 1.523603012680036e-15
6000.056 3.2836669542000147e-15
6050.056 6.403420338800053e-15
6100.056 1.0895436547000078e-14
6150.056 1.6847858235000095e-14
6200.056 2.4671221696000117e-14
6250.056 3.270385843700006e-14
6300.056 4.557994373100012e-14
6350.056 6.255599391500015e-14
6400.056 8.323498220300033e-14
6450.056 8.558896145799925e-14
6500.056 1.0747038094500155e-13
6550.056 1.5341932920199805e-13
6600.056 2.2289343820900363e-13
6650.056 3.483069800100026e-13
6700.056 4.902018086100029e-13
6750.056 7.076391894100038e-13
6800.056 8.235677536900009e-13
6850.056 7.852764449999983e-13
6900.056 5.160340370889925e-13
6950.056 2.596304818950051e-13
7000.056 3.209388749499911e-13
7050.056 3.1024906614300215e-13
7100.056 3.6508735280999827e-13
7150.056 2.1602143218536196e-13
7200.056 8.411383650382164e-14
7250.056 9.28712773373844e-14
7300.056 1.022317919681879e-13
7350.056 1.9931182065110106e-13
7400.056 3.504701817770048e-13
7450.056 6.272449049600131e-13
7500.056 9.019619612900032e-13
7550.056 1.1265336314300038e-12
7600.056 1.2560180273000013e-12
7650.056 8.377109830499897e-13
7700.056 8.919582466500121e-13
7750.056 1.6281265484000116e-12
7800.056 1.911967897200005e-12
7850.056 1.984850463099979e-12
7900.056 2.1633079920600056e-12
7950.056 2.578588702999996e-12
8000.056 2.757280547500005e-12
8050.056 3.017795798800013e-12
8100.056 1.355633518174933e-12
8150.056 3.0687544192288197e-13
8200.056 1.3698113974096708e-12
8250.056 1.5048256467560047e-12
8300.056 1.2094845453841791e-12
8350.056 1.4697976256690182e-12
8400.056 2.4874715978701236e-12
8450.056 4.972181683000057e-12
8500.056 7.048920375600046e-12
8550.056 9.480399103400121e-12
8600.056 1.1986983383200087e-11
8650.056 1.3119065676000007e-11
8700.056 1.1274605641999956e-11
8750.056 1.0398919529799982e-11
8800.056 7.928114075599824e-12
8850.056 4.402582008539724e-12
8900.056 1.7315235377397188e-13
8950.056 1.6409959978316783e-14
9000.056 1.88896910187237e-14
9050.056 2.427902546576144e-13
9100.056 2.7746315930008544e-13
9150.056 4.848110409932121e-13
9200.056 1.558876023950211e-12
9250.056 9.247836961372561e-13
9300.056 7.983956228197413e-16
9350.056 3.266632646244459e-16
9400.056 2.0422672081082268e-14
9450.056 3.97674604485124e-15
9500.056 5.114404638616994e-15
9550.056 3.629834247684188e-15
9600.056 1.1648565808208127e-14
9650.056 4.966855986827127e-14
9700.056 6.021397575644162e-13
9750.056 3.698224646159688e-13
9800.056 5.41589545502311e-13
9850.056 8.22266843654289e-13
9900.056 1.4709579802891187e-12
9950.056 1.577260793120083e-12
10000.056 1.387179004834845e-12
10050.056 1.1729029904799528e-12
10100.056 8.373708935499977e-13
10150.056 3.581275416029835e-13
10200.056 5.53754883771006e-14
10250.056 5.0738968499176265e-14
10300.056 1.576675742587995e-13
10350.056 4.506266652266401e-14
10400.056 2.1102695974042208e-13
10450.056 3.972560922819667e-13
10500.056 7.341431275700296e-13
10550.056 1.3517776060100156e-12
10600.056 1.6687830814000249e-12
10650.056 1.5524889993999845e-12
10700.056 1.112316307939983e-12
10750.056 9.20947488469976e-13
10800.056 7.685287053700166e-13
10850.056 6.027015270749961e-13
10900.056 4.650919702269847e-13
10950.056 2.6164072293899887e-13
11000.056 1.251145791119864e-13
11050.056 4.3143229664158214e-14
11100.056 9.380127622142498e-15
11150.056 1.2760964754747898e-15
11200.056 3.2302794676570354e-16
11250.056 1.91403444070163e-16
11300.056 1.2730269711333739e-15
11350.056 1.4923073047169704e-16
11400.056 3.425975806749737e-15
11450.056 1.2802530860131949e-15
11500.056 1.444453055946944e-15
11550.056 3.1279065931772676e-16
11600.056 4.1360832110434724e-17
11650.056 6.496770416952142e-16
11700.056 1.4403999878462552e-15
11750.056 5.672115057731076e-16
11800.056 3.32239922052319e-15
11850.056 2.8894881046639558e-15
11900.056 4.044258264919152e-15
11950.056 7.150169217400468e-15
12000.056 8.646641746774163e-15
12050.056 1.343072174444026e-14
12100.056 1.4024993970648488e-14
12150.056 2.055706669205865e-14
12200.056 2.446330031001974e-14
12250.056 6.845111440866065e-14
12300.056 1.6043086089355133e-13
12350.056 2.1999778334121026e-13
12400.056 4.801080121280077e-13
12450.056 1.0923058535300351e-12
12500.056 1.512365205249982e-12
12550.056 1.6418641182400256e-12
12600.056 2.857838330630163e-12
12650.056 5.679894454540149e-12
12700.056 7.112206857999898e-12
12750.056 4.660180128350096e-12
12800.056 2.882988051039824e-12
12850.056 1.1962902937499236e-12
12900.056 5.605406485988325e-13
12950.056 4.0666117983630505e-13
13000.056 4.561147080130602e-13
13050.056 2.1864267200299882e-13
13100.056 2.416884621267493e-13
13150.056 7.66764510056314e-14
13200.056 1.0348550783248425e-13
13250.056 1.4829507334346537e-13
13300.056 3.393280319222238e-14
13350.056 2.0764901509522503e-14
13400.056 4.874046082088909e-15
13450.056 3.9115053889299825e-16
13500.056 2.637285225003158e-17
13550.056 1.003075257083775e-18
13600.056 5.0396031793544856e-20
13650.056 5.283557957731637e-19
13700.056 1.6144956863750286e-19
13750.056 3.3923585429145902e-18
13800.056 3.9882514466950566e-18
13850.056 5.78615852154574e-19
13900.056 3.892413147708634e-18
13950.056 1.6922340768411877e-18
14000.056 1.1181089217595331e-17
14050.056 1.0094764144750354e-17
14100.056 1.1978701610557501e-17
14150.056 1.1466133924573642e-16
14200.056 9.914506348343995e-17
14250.056 2.3146841953711573e-16
14300.056 1.1183840246291457e-15
14350.056 7.308932773479749e-16
14400.056 6.792962184643918e-16
14450.056 2.0770284560603987e-15
14500.056 6.93706530066646e-15
14550.056 1.8558398494355394e-14
14600.056 3.1207841517505645e-14
14650.056 4.846587912037981e-15
14700.056 1.4591178777700787e-15
14750.056 3.460982748173308e-16
14800.056 3.2602107597651063e-16
14850.056 2.9260291578195875e-16
14900.056 1.859663410677622e-16
14950.056 5.788147472104114e-17
15000.056 4.1072485547555253e-16
15050.056 1.5022151230712937e-15
15100.056 2.1493027405065685e-16
15150.056 2.9499109264685973e-17
15200.056 6.930920600483355e-16
15250.056 1.6696000605912173e-15
15300.056 3.978088400902944e-15
15350.056 7.169099604749814e-15
15400.056 6.8080194959828984e-15
15450.056 1.6499042840817873e-14
15500.056 3.3899389511988665e-14
15550.056 1.6610230120849942e-13
15600.056 4.863096525705522e-13
15650.056 1.4404135394802358e-12
15700.056 3.684721461740243e-12
15750.056 5.456768412560093e-12
15800.056 7.589209443900117e-12
15850.056 1.1065157324600888e-11
15900.056 1.313323626379974e-11
15950.056 1.794089945420002e-11
16000.056 1.6707329756299796e-11
16050.056 1.1522503595999503e-11
16100.056 5.659757334000105e-12
16150.056 2.287869372559734e-12
16200.056 5.265858202920161e-13
16250.056 1.3559063797863705e-13
16300.056 3.552216776386421e-14
16350.056 2.7591146957444836e-14
16400.056 2.8418109393172557e-14
16450.056 3.6164433499211746e-14
16500.056 2.317047319216392e-14
16550.056 2.811403232743841e-14
16600.056 1.9709822305033795e-13
16650.056 6.024381367186592e-14
16700.056 9.211269399873402e-15
16750.056 3.2361557810871265e-14
16800.056 6.9221115844231e-14
16850.056 6.554810134112357e-14
16900.056 1.2625657648235305e-14
16950.056 8.120806509915342e-15
17000.056 2.234224099709263e-15
17050.056 4.448007060944553e-15
17100.056 1.9978182018686565e-14
17150.056 9.240798274168496e-15
17200.056 6.068785962310496e-14
17250.056 4.5798862335029316e-15
17300.056 4.7304769881696e-15
17350.056 1.2111103669785354e-14
17400.056 3.956078180165376e-14
17450.056 5.776360787448653e-14
17500.056 1.2642890546437812e-13
17550.056 1.0866417734006255e-13
17600.056 1.1733431696252213e-13
17650.056 4.3304081650049456e-14
17700.056 3.726072239782871e-14
17750.056 2.423217832451105e-14
17800.056 8.405171994673765e-14
17850.056 2.113902580694809e-14
17900.056 1.152841106558587e-14
17950.056 7.494275773173693e-15
18000.056 1.5768754852407276e-14
18050.056 6.052294792814523e-15
18100.056 5.726333713080398e-15
18150.056 1.834626883501342e-15
18200.056 1.4419678670510682e-15
18250.056 9.192786269388103e-15
18300.056 3.269513069501973e-16
18350.056 3.130719493002017e-16
18400.056 8.10280660424938e-17
18450.056 1.9056820459376167e-15
18500.056 1.294676044809021e-15
18550.056 3.8800548223074096e-16
18600.056 1.7512296706385463e-15
18650.056 1.662633818617841e-15
18700.056 4.376136968539286e-17
18750.056 7.56059208247044e-17
18800.056 5.86108374453721e-15
18850.056 3.472472434672278e-15
18900.056 8.005333768862486e-15
18950.056 7.794947136610348e-15
19000.056 4.901787303096627e-16
19050.056 2.2168884660731057e-16
19100.056 1.4169446336292107e-15
19150.056 5.47411884588824e-16
19200.056 1.862010503391946e-15
19250.056 1.2550418067347959e-15
19300.056 5.090777789020299e-16
19350.056 6.9204646884263625e-16
19400.056 3.46968580711828e-16
19450.056 2.7689112746463393e-16
19500.056 2.458249201965024e-16
19550.056 1.0809673401622119e-15
19600.056 2.555661408524034e-15
19650.056 1.6747301904993332e-15
19700.056 3.5050605479258903e-15
19750.056 4.7137900594997806e-15
19800.056 2.320450180672195e-15
19850.056 3.157033287996936e-15
19900.056 6.9875154205798085e-15
19950.056 7.826811199021326e-15
20000.056 8.889743959395058e-15
20050.056 6.47756029389387e-15
20100.056 1.0429178631172776e-14
20150.056 7.104928621183484e-15
20200.056 4.142753447544482e-15
20250.056 1.2200388038986456e-14
20300.056 1.628771699148538e-14
20350.056 1.7566752718419724e-14
20400.056 1.6772062452999252e-14
20450.056 2.6416006737635675e-14
20500.056 2.656076750105083e-14
20550.056 2.7015394342647415e-14
20600.056 2.7104248697704268e-14
20650.056 2.7049364955896673e-14
20700.056 2.6799820734799038e-14
20750.056 2.4798578664999582e-14
20800.056 2.2105081395998455e-14
20850.056 2.1702382058999982e-14
20900.056 1.9988555452999913e-14
20950.056 1.7906636759999914e-14
21000.056 1.6331697375599887e-14
21050.056 1.6107759812999856e-14
21100.056 1.5761419485999972e-14
21150.056 1.632134832700021e-14
21200.056 1.708366185320046e-14
21250.056 1.8604878088999562e-14
21300.056 1.93987211130002e-14
21350.056 2.079298983509918e-14
21400.056 2.414670366510184e-14
21450.056 2.1980396681031195e-14
21500.056 2.075785114553924e-14
21550.056 2.2424960286283663e-14
21600.056 2.1342123158321594e-14
21650.056 1.791292110099502e-14
21700.056 1.4915887018546458e-14
21750.056 1.6985466395695594e-14
21800.056 1.271691241169445e-14
21850.056 1.2411669708787409e-14
21900.056 9.19068220922892e-15
21950.056 3.4233036293870976e-15
22000.056 1.517073538977601e-16
22050.056 3.6015731655564205e-16
22100.056 1.3929232582358354e-15
22150.056 7.043027783282123e-16
22200.056 6.00407847532048e-16
22250.056 4.564146440584835e-16
22300.056 9.232856402187257e-17
22350.056 2.5703930698538995e-16
22400.056 7.248085802011015e-17
22450.056 1.6748877815887954e-16
22500.056 1.1621768157112347e-16
22550.056 2.362880725849003e-17
22600.056 1.3444814541620661e-17
22650.056 1.5025900012211027e-17
22700.056 2.978030257633988e-17
22750.056 9.150743520694583e-17
22800.056 1.3787452403819022e-16
22850.056 7.168874153825636e-17
22900.056 3.9827016758451464e-17
22950.056 1.9421640860464744e-17
23000.056 2.0324306946119574e-17
23050.056 8.988880553036585e-18
23100.056 1.0180353175824375e-15
23150.056 1.1481510281610808e-15
23200.056 9.948604113918014e-18
23250.056 1.4950767491025799e-16
23300.056 6.740613517156011e-17
23350.056 1.2501725574337618e-16
23400.056 1.3115120198759582e-16
23450.056 2.59944412472127e-17
23500.056 2.7048985362517847e-17
23550.056 9.246071662284878e-17
23600.056 4.459890770364197e-16
23650.056 7.519739003811476e-16
23700.056 3.336023746445572e-17
23750.056 7.238050162474887e-17
23800.056 8.520034893044333e-16
23850.056 2.968658983621859e-16
23900.056 1.0071839724358597e-15
23950.056 2.738608162894247e-16
24000.056 1.5367765892923298e-15
24050.056 1.6425247117743652e-15
24100.056 3.85351208524272e-15
24150.056 5.75579735898139e-15
24200.056 3.4838045467964744e-15
24250.056 2.14755682962092e-15
24300.056 7.173394297934045e-15
24350.056 7.128471861745548e-15
24400.056 1.9997621253379102e-14
24450.056 2.5111326950656814e-14
24500.056 2.24305729267868e-14
24550.056 4.931392289680792e-14
24600.056 7.480640628735761e-14
24650.056 1.16599661415014e-13
24700.056 9.212069923178529e-14
24750.056 1.5055967909469504e-13
24800.056 1.381811136749038e-13
24850.056 1.763772800211431e-13
24900.056 1.252334889098097e-13
24950.056 1.7719870110905101e-13
25000.056 2.765997532217944e-13
25050.056 1.6618028099223006e-13
25100.056 2.3045512440325893e-13
25150.056 1.0267327242554045e-13
25200.056 1.716392224765358e-13
25250.056 6.742255878926375e-14
25300.056 4.962680705321367e-14
25350.056 3.3741571065287584e-14
25400.056 7.382319367411512e-14
25450.056 1.7819066283076274e-14
25500.056 1.3502820579953992e-14
25550.056 3.661238799263502e-14
25600.056 1.2842596755085306e-14
25650.056 4.7009742725028785e-15
25700.056 3.922404391161975e-15
25750.056 1.8250652645066534e-15
25800.056 7.79006646786461e-15
25850.056 1.4857604962113823e-15
25900.056 1.4156885032567718e-15
25950.056 1.1744848100108394e-15
26000.056 4.662829896859461e-15
26050.056 1.4129452832458063e-15
26100.056 3.527181690348646e-15
26150.056 2.0813315948305826e-15
26200.056 2.585188949091404e-15
26250.056 9.286695013570108e-15
26300.056 3.4199513704241934e-15
26350.056 1.7445278123765475e-14
26400.056 4.24372368019118e-14
26450.056 2.4105536212250338e-14
26500.056 5.857163597036278e-14
26550.056 9.892708969006694e-15
26600.056 8.889841979819042e-15
26650.056 2.9015147199960474e-15
26700.056 3.3493605123217233e-15
26750.056 4.503055028661095e-15
26800.056 1.1528101419329713e-14
26850.056 9.008649379407738e-15
26900.056 2.3009308496519255e-14
26950.056 7.620002103839119e-15
27000.056 2.54029052674356e-14
27050.056 4.6277055712397545e-14
27100.056 6.158915026868756e-15
27150.056 3.711282339219831e-14
27200.056 7.214381603566885e-15
27250.056 1.5527196909906693e-14
27300.056 1.0180232442100118e-13
27350.056 3.7114036620323245e-14
27400.056 6.767907915331578e-15
27450.056 5.3785353331807134e-14
27500.056 6.601904878851968e-14
27550.056 1.9894329418737533e-14
27600.056 4.6681992636402015e-14
27650.056 1.8903297122671578e-14
27700.056 2.3136818201717623e-14
27750.056 7.634898428731741e-14
27800.056 3.573243728065059e-14
27850.056 6.339445885872235e-14
27900.056 8.53515795151697e-14
27950.056 1.0887770873799896e-13
28000.056 1.6652189302260993e-13
28050.056 2.0411603027313795e-14
28100.056 1.7940009440531708e-13
28150.056 1.39018967349441e-13
28200.056 2.915923864122675e-14
28250.056 2.0362092191215815e-13
28300.056 1.743135366890935e-13
28350.056 2.5425436835022616e-14
28400.056 1.2667312571872775e-13
28450.056 1.4483993340330626e-13
28500.056 5.81348363342317e-14
28550.056 3.0581988525098145e-14
28600.056 2.0476259677461987e-13
28650.056 4.782811872438814e-14
28700.056 1.7507688120199802e-13
28750.056 2.5169694664640066e-13
28800.056 3.7482482006106935e-14
28850.056 5.825954757151765e-13
28900.056 1.0723814797503993e-13
28950.056 1.4207640365168873e-13
29000.056 6.942109665778783e-14
29050.056 1.6975115546476166e-13
29100.056 3.1187353640531453e-14
29150.056 2.1178749490388426e-14
29200.056 6.29939997753842e-13
29250.056 1.6985928249031498e-13
29300.056 7.451584390538344e-14
29350.056 3.2389498628916535e-13
29400.056 2.922866586026717e-13
29450.056 3.5645945825551226e-14
29500.056 5.410650207359566e-13
29550.056 1.314962937933624e-13
29600.056 6.446690598497203e-14
29650.056 6.343730090507473e-13
29700.056 8.715630166906592e-14
29750.056 6.261178395104661e-13
29800.056 1.405932237982462e-13
29850.056 7.205136460090944e-13
29900.056 1.9275634578628306e-13
29950.056 2.106215915806915e-13
30000.056 7.652757537944084e-16
30050.056 6.153339194699733e-14
30100.056 2.738806113346503e-13
30150.056 7.130453840685132e-13
30200.056 6.694173873285659e-13
30250.056 6.120393828706638e-13
30300.056 1.033800442137699e-12
30350.056 1.4766554695005656e-13
30400.056 1.4787274847905138e-12
30450.056 2.044206970749211e-12
30500.056 1.7244145573013857e-13
30550.056 2.3910073661148194e-13
30600.056 1.5034775608487935e-11
30650.056 4.0508366941428955e-12
30700.056 3.851216132042175e-13
30750.056 2.2052062579504698e-12
30800.056 6.416459792905003e-12
30850.056 4.608325376985073e-12
30900.056 1.823671580319261e-12
30950.056 9.828603495276923e-13
31000.056 1.448692631879964e-12
31050.056 3.0161541501029607e-13
31100.056 2.289876658577574e-13
31150.056 1.135592368362094e-12
31200.056 6.909349358530257e-12
31250.056 3.4954247646528312e-12
31300.056 5.556488862485201e-13
31350.056 6.591240891004855e-12
31400.056 3.487683496413276e-12
31450.056 3.2079402278225796e-12
31500.056 7.502327208179413e-13
31550.056 2.043871046233447e-12
31600.056 1.8135676121453727e-12
31650.056 1.1430320023478607e-12
31700.056 7.014935091882525e-13
31750.056 3.2706060721271794e-13
31800.056 5.376083806718532e-13
31850.056 4.882169665019807e-14
31900.056 1.6050261141686095e-13
31950.056 6.824553613321943e-14
32000.056 3.9792649173383287e-14
32050.056 3.44639707132397e-14
32100.056 3.1358345204035345e-14
32150.056 1.6389395457721257e-14
32200.056 5.002516926713597e-15
32250.056 1.2940088990731876e-14
32300.056 1.7071690925526812e-15
32350.056 5.967452184055717e-15
32400.056 3.5939589724752313e-16
32450.056 3.623345253198254e-15
32500.056 3.1710088056154093e-16
32550.056 2.450677639459742e-15
32600.056 1.7241980778774974e-16
32650.056 4.588420926403186e-15
32700.056 2.627050857937663e-16
32750.056 1.6807778706614424e-14
32800.056 3.816310758137254e-15
32850.056 8.701610313021652e-14
32900.056 4.365057546298842e-14
32950.056 9.015504116228416e-14
33000.056 1.9055867052873253e-14
33050.056 5.980586859625308e-15
33100.056 8.144840345393073e-16
33150.056 2.1509835496328967e-18
33200.056 3.199710179579562e-16
33250.056 5.144896214745572e-16
33300.056 1.8221867519053735e-14
33350.056 9.39679578473697e-15
33400.056 9.35034530912089e-14
33450.056 3.2159854463786974e-15
33500.056 5.306252168141233e-14
33550.056 4.810604011116241e-15
33600.056 2.2890702849423638e-14
33650.056 2.971314551588683e-14
33700.056 2.2923734019155692e-15
33750.056 3.3718270167490546e-14
33800.056 1.0709442067109898e-15
33850.056 1.5529376405395578e-14
33900.056 1.6979262103554144e-14
33950.056 2.3657487039089807e-14
34000.056 7.838387394652756e-14
34050.056 1.2080987558248242e-14
34100.056 1.1239519138313969e-13
34150.056 3.0509145530197015e-14
34200.056 2.009999742397024e-13
34250.056 4.422091283948497e-14
34300.056 9.349693265229525e-14
34350.056 9.148626711275955e-13
34400.056 6.258938267054772e-14
34450.056 5.005691008382973e-13
34500.056 8.509551301997564e-14
