# %ECSV 1.0
# ---
# datatype:
# - {name: wav, unit: Angstrom, datatype: float64}
# - {name: flux_nu, unit: erg / (cm2 Hz s), datatype: float64}
# meta: {C/O: '1.00', Kzz: '1.0000E+05', Teff: '200.', Y: '0.28', '[Fe/H]': '-0.50', f_hole: '1.00', f_rain: '0.00', grav: '316.'}
# schema: astropy-2.0
wav flux_nu
4000.0559999999996 nan
4050.0559999999996 3.0338035463000307e-20
4100.056 2.792313804080031e-19
4150.056 1.0114901281700073e-18
4200.056 2.289176450900014e-18
4250.056 6.004689935200035e-18
4300.056 1.2592443971600058e-17
4350.056 2.303330994800009e-17
4400.056 3.64431931770001e-17
4450.056 5.611634180300023e-17
4500.056 9.543100617700036e-17
4550.056 1.5381246485000042e-16
4600.056 2.1372943483000058e-16
4650.056 2.8333459706000053e-16
4700.056 3.3729455558000044e-16
4750.056 3.740840080300003e-16
4800.056 3.9639618804e-16
4850.056 3.3595219532999917e-16
4900.056 2.8158963562999953e-16
4950.056 2.3423371885999954e-16
5000.056 1.6002124065999913e-16
5050.056 1.0722040746199983e-16
5100.056 1.210551290000003e-16
5150.056 1.4674995846000029e-16
5200.056 1.7391734194000027e-16
5250.056 1.9876136528000026e-16
5300.056 2.2632586652000034e-16
5350.056 2.5764981525000036e-16
5400.056 2.8567682450000035e-16
5450.056 3.284483324400006e-16
5500.056 3.8416258125000063e-16
5550.056 4.460389203900007e-16
5600.056 5.088806088400007e-16
5650.056 5.703765180800007e-16
5700.056 5.956169743500008e-16
5750.056 6.305118291000003e-16
5800.056 6.092244445899994e-16
5850.056 4.4207297265999476e-16
5900.056 1.186557684164038e-16
5950.056 7.87610829070013e-16
6000.056 1.7364673875000149e-15
6050.056 3.2761141498000257e-15
6100.056 5.384806782200034e-15
6150.056 8.207082465200045e-15
6200.056 1.2003701123900058e-14
6250.056 1.6370338152000057e-14
6300.056 2.29634537160001e-14
6350.056 3.187688466200013e-14
6400.056 4.283502981800019e-14
6450.056 4.6022793356999846e-14
6500.056 5.704008903100059e-14
6550.056 7.991935699499991e-14
6600.056 1.1532424590800124e-13
6650.056 1.7891612397000115e-13
6700.056 2.5854320711000143e-13
6750.056 3.590953800500017e-13
6800.056 4.2747856852000047e-13
6850.056 4.154142843199992e-13
6900.056 2.821939752239954e-13
6950.056 1.566486024770025e-13
7000.056 1.9216602176999762e-13
7050.056 1.9335428756000097e-13
7100.056 2.2595384489000004e-13
7150.056 1.3502609395349584e-13
7200.056 5.333282248920089e-14
7250.056 5.868458378399693e-14
7300.056 6.44583318220029e-14
7350.056 1.3989317023400158e-13
7400.056 2.5352712318000195e-13
7450.056 4.232951796700046e-13
7500.056 5.739531479700019e-13
7550.056 6.82743011480002e-13
7600.056 7.472714316100008e-13
7650.056 5.369709435199945e-13
7700.056 5.782822066000072e-13
7750.056 9.559762169000045e-13
7800.056 1.0924080891000025e-12
7850.056 1.1500085436899973e-12
7900.056 1.2305267293700056e-12
7950.056 1.4569853767999995e-12
8000.056 1.576610105100004e-12
8050.056 1.7412019386000016e-12
8100.056 9.026263316599702e-13
8150.056 1.756402730740133e-13
8200.056 7.856316826819951e-13
8250.056 8.948133976049948e-13
8300.056 7.458130869219793e-13
8350.056 9.634525797100187e-13
8400.056 1.7841353304200713e-12
8450.056 3.3354095031000475e-12
8500.056 4.621963161700044e-12
8550.056 6.102346749700063e-12
8600.056 7.800795857600066e-12
8650.056 8.855241774900011e-12
8700.056 8.15937100159997e-12
8750.056 7.726424688899987e-12
8800.056 6.100858036499897e-12
8850.056 3.4148354393298013e-12
8900.056 1.6890921628736994e-13
8950.056 8.998748567890538e-15
9000.056 8.703357341287801e-15
9050.056 1.8102402407600005e-13
9100.056 1.685153783749254e-13
9150.056 2.8293239284778113e-13
9200.056 8.010563552152751e-13
9250.056 4.979417425463281e-13
9300.056 4.581564016891458e-16
9350.056 2.1909653744436292e-17
9400.056 5.718445963758018e-15
9450.056 2.4573540706095686e-16
9500.056 7.722162330376669e-16
9550.056 5.084138255828214e-16
9600.056 2.2663368162836154e-15
9650.056 1.4188593883182747e-14
9700.056 2.4555587090879746e-13
9750.056 2.1578219812302803e-13
9800.056 3.807089286339856e-13
9850.056 7.087721795500036e-13
9900.056 1.3744004303100653e-12
9950.056 1.533565659330035e-12
10000.056 1.08760222327993e-12
10050.056 1.7108416770398122e-13
10100.056 7.757534288199909e-14
10150.056 3.676862012399789e-14
10200.056 8.447015617699674e-15
10250.056 4.661965543139972e-15
10300.056 8.943354299849652e-15
10350.056 3.218724862700162e-15
10400.056 7.678566665100178e-15
10450.056 9.052938498399704e-15
10500.056 9.854760973800049e-15
10550.056 9.991704554699914e-15
10600.056 7.912208567499907e-15
10650.056 5.352234737599884e-15
10700.056 3.2095399668999168e-15
10750.056 1.9996720906999437e-15
10800.056 1.389341161680001e-15
10850.056 1.0040088878899806e-15
10900.056 7.3030314881998e-16
10950.056 4.567875779899941e-16
11000.056 2.66273402109991e-16
11050.056 1.3318092399199598e-16
11100.056 4.164497467588581e-17
11150.056 7.021580121016332e-18
11200.056 1.4129638647547956e-18
11250.056 7.857481537799376e-19
11300.056 3.71707677299338e-18
11350.056 1.2149244182659796e-18
11400.056 9.301837688711012e-18
11450.056 4.4428465179241e-18
11500.056 5.08009086854834e-18
11550.056 2.842236616301081e-18
11600.056 9.30300350287217e-19
11650.056 4.877507330828086e-18
11700.056 1.3450077772963666e-17
11750.056 1.184124059627306e-17
11800.056 3.0398698941949794e-17
11850.056 3.127156438824097e-17
11900.056 4.9707168996000834e-17
11950.056 6.274334999899956e-17
12000.056 5.4804513572901145e-17
12050.056 7.579635395400187e-17
12100.056 9.738188184400303e-17
12150.056 1.5772532561800439e-16
12200.056 2.367925422900028e-16
12250.056 4.715680614090185e-16
12300.056 7.42684173697021e-16
12350.056 9.3213715213003e-16
12400.056 1.7397726495000574e-15
12450.056 3.635822065000145e-15
12500.056 6.361330284600036e-15
12550.056 9.475144935600286e-15
12600.056 1.7625404221800632e-14
12650.056 3.478919372800142e-14
12700.056 5.261314694100022e-14
12750.056 5.5674817039000515e-14
12800.056 5.648481074999938e-14
12850.056 4.0164718420998656e-14
12900.056 2.45014473613997e-14
12950.056 2.1744863112099847e-14
13000.056 2.5322736060901607e-14
13050.056 1.6993071146258985e-14
13100.056 2.584369223079934e-14
13150.056 1.2587914514400911e-14
13200.056 1.3605216593691996e-14
13250.056 2.4104051070335803e-14
13300.056 5.387237801275778e-15
13350.056 4.533122118182726e-15
13400.056 9.964638669010314e-16
13450.056 5.973129764934771e-17
13500.056 1.893258865782934e-18
13550.056 3.052029690860504e-20
13600.056 1.7630138178134297e-21
13650.056 9.581956037594874e-21
13700.056 2.424110090436868e-21
13750.056 1.0341744617834258e-19
13800.056 1.3850165987099311e-19
13850.056 1.9547759052686185e-20
13900.056 1.7408344534137485e-19
13950.056 5.074327232148456e-20
14000.056 6.049222196376445e-19
14050.056 6.451852613249079e-19
14100.056 7.861926345457904e-19
14150.056 1.0625139166551285e-17
14200.056 1.2328427893678127e-17
14250.056 2.936314258361976e-17
14300.056 1.0609347115765472e-16
14350.056 9.724654412471543e-17
14400.056 9.376509750374942e-17
14450.056 2.490479186356804e-16
14500.056 1.168042030642802e-15
14550.056 4.8660616589160985e-15
14600.056 9.368129120128865e-15
14650.056 1.2095924112348631e-15
14700.056 3.3686898698073317e-16
14750.056 1.4770241809499461e-16
14800.056 6.1758904504351e-17
14850.056 6.648751672056837e-17
14900.056 2.5636104335562302e-17
14950.056 4.8684425954550325e-18
15000.056 4.031742860910185e-17
15050.056 2.337435069788473e-16
15100.056 4.041948871390907e-17
15150.056 5.543661962396611e-18
15200.056 9.169327115989497e-17
15250.056 2.5336493814009504e-16
15300.056 7.932521293102175e-16
15350.056 1.279843282056441e-15
15400.056 1.7760807673573232e-15
15450.056 5.1448823366299614e-15
15500.056 1.588488984020089e-14
15550.056 5.928735307310884e-14
15600.056 1.5546215795000008e-13
15650.056 3.564709349700252e-13
15700.056 5.978695765200168e-13
15750.056 7.166619132700002e-13
15800.056 8.02598525760001e-13
15850.056 9.244907711900201e-13
15900.056 9.365136822699978e-13
15950.056 1.0598553504199953e-12
16000.056 9.744415474499885e-13
16050.056 7.883977358399799e-13
16100.056 5.268872287299979e-13
16150.056 3.1067762869998144e-13
16200.056 9.666314621399275e-14
16250.056 2.8822126863298356e-14
16300.056 7.0063601014684375e-15
16350.056 2.878021846621398e-15
16400.056 1.9791804416013433e-15
16450.056 2.3542552995122735e-15
16500.056 1.3869658416121531e-15
16550.056 2.2843376211723593e-15
16600.056 1.6532974664453212e-14
16650.056 4.040510328100259e-15
16700.056 1.831839473098793e-15
16750.056 4.336700630055511e-15
16800.056 6.3409534150568784e-15
16850.056 5.663803664355663e-15
16900.056 1.7108819656843356e-15
16950.056 1.4256981890561469e-15
17000.056 4.64072633050636e-16
17050.056 4.801539055476389e-16
17100.056 1.7024503215299575e-15
17150.056 1.3728858451367893e-15
17200.056 5.026944460271239e-15
17250.056 3.5600471017861937e-16
17300.056 5.582239197026227e-16
17350.056 1.5226934269627083e-15
17400.056 3.4428414969382197e-15
17450.056 4.9897048839640865e-15
17500.056 9.376692969799797e-15
17550.056 8.987877588460027e-15
17600.056 9.61405121190031e-15
17650.056 4.0382657076097665e-15
17700.056 3.113682282132409e-15
17750.056 2.080809812851674e-15
17800.056 3.3411243771881035e-15
17850.056 1.592980071701431e-15
17900.056 8.390283584490644e-16
17950.056 6.403684130402254e-16
18000.056 8.155247386053357e-16
18050.056 3.898595546731985e-16
18100.056 2.703699389848167e-16
18150.056 9.435606536097528e-17
18200.056 6.753634406829183e-17
18250.056 2.5949623212036233e-16
18300.056 1.6577653072221295e-17
18350.056 1.6230167831673454e-17
18400.056 4.5642568945838014e-18
18450.056 4.7468669468195655e-17
18500.056 2.7054103617893274e-17
18550.056 1.1325705008301718e-17
18600.056 4.4044470548286697e-17
18650.056 6.018299328437389e-17
18700.056 3.8645272699664115e-18
18750.056 4.990586996900931e-18
18800.056 9.685193607911751e-17
18850.056 6.156019123352571e-17
18900.056 1.0937092541268586e-16
18950.056 1.0622399357872035e-16
19000.056 1.5014420897788596e-17
19050.056 9.302163511562041e-18
19100.056 3.853900976472991e-17
19150.056 2.1250411771985683e-17
19200.056 4.409139798330359e-17
19250.056 3.7887119678912015e-17
19300.056 1.9905519992688503e-17
19350.056 2.5283494986002376e-17
19400.056 1.2477191944903033e-17
19450.056 5.040195480842038e-18
19500.056 4.934490995971315e-18
19550.056 1.2526273199129139e-17
19600.056 1.900921671215175e-17
19650.056 1.3557823702947277e-17
19700.056 2.5997508329989138e-17
19750.056 2.2860260299746883e-17
19800.056 1.3224009527035912e-17
19850.056 1.9082802999860758e-17
19900.056 2.9269851234415006e-17
19950.056 1.9334367251280576e-17
20000.056 1.9829997878388048e-17
20050.056 1.9289261556230536e-17
20100.056 2.5324105398617198e-17
20150.056 1.647387971120499e-17
20200.056 1.2907906775496292e-17
20250.056 2.2231449643321802e-17
20300.056 2.3190273418649112e-17
20350.056 2.2288636706499132e-17
20400.056 2.1582947839199956e-17
20450.056 2.0647222725701053e-17
20500.056 1.774440276900025e-17
20550.056 1.4900736079299208e-17
20600.056 1.2366369578100326e-17
20650.056 1.0020883113999595e-17
20700.056 7.947956041999774e-18
20750.056 6.0751732343998405e-18
20800.056 4.616354239699876e-18
20850.056 3.541703484699925e-18
20900.056 2.721619372999945e-18
20950.056 2.1658400507999597e-18
21000.056 1.8197046919999776e-18
21050.056 1.6241852786999884e-18
21100.056 1.580608988100004e-18
21150.056 1.7220185745000208e-18
21200.056 2.049994240700038e-18
21250.056 2.621783242500052e-18
21300.056 3.498884479100108e-18
21350.056 4.746413414800043e-18
21400.056 6.6357237936002594e-18
21450.056 8.323478755400263e-18
21500.056 9.765664169550071e-18
21550.056 1.1248784669209977e-17
21600.056 1.1978684650529268e-17
21650.056 1.2852702898285136e-17
21700.056 1.3052552688089617e-17
21750.056 1.335547714877487e-17
21800.056 1.1911942476273786e-17
21850.056 1.2448209378989735e-17
21900.056 1.0704475711758702e-17
21950.056 7.058546703115599e-18
22000.056 7.647492978697872e-19
22050.056 1.0015362717046208e-18
22100.056 2.264007102651794e-18
22150.056 1.2364991791885798e-18
22200.056 1.1915242345489455e-18
22250.056 8.434576351583728e-19
22300.056 2.9221325415216967e-19
22350.056 7.868842949864038e-19
22400.056 4.987797659807889e-19
22450.056 7.297669506410358e-19
22500.056 6.602101120741391e-19
22550.056 1.7717851226926e-19
22600.056 1.4389350881736078e-19
22650.056 6.936055102480755e-20
22700.056 1.6402531494292966e-19
22750.056 3.398795475964509e-19
22800.056 5.443229190018204e-19
22850.056 2.6864681243372387e-19
22900.056 1.846300645666691e-19
22950.056 1.2793474455962042e-19
23000.056 6.427655160446747e-20
23050.056 3.0252374323087927e-20
23100.056 1.571476210137604e-18
23150.056 1.649433119424736e-18
23200.056 9.665222568149093e-20
23250.056 7.190461673068572e-19
23300.056 1.9067557235613262e-19
23350.056 5.169576949489655e-19
23400.056 4.0087939236490894e-19
23450.056 1.7031110520281635e-19
23500.056 1.0017559502384563e-19
23550.056 2.19370238631579e-19
23600.056 6.643818106095871e-19
23650.056 1.0843884002408549e-18
23700.056 1.1092590149528095e-19
23750.056 2.4412146575122657e-19
23800.056 1.2117444402758781e-18
23850.056 4.709459683984195e-19
23900.056 1.0955469450283346e-18
23950.056 5.877239797738729e-19
24000.056 1.9820553159006103e-18
24050.056 2.3602281552310977e-18
24100.056 4.347414885203396e-18
24150.056 6.992288830870166e-18
24200.056 7.141280401394179e-18
24250.056 6.427552336229458e-18
24300.056 1.526479965569523e-17
24350.056 2.2989601872398906e-17
24400.056 3.9778506777031334e-17
24450.056 6.571603235260828e-17
24500.056 8.684029763599384e-17
24550.056 1.4583497793001048e-16
24600.056 2.394204161770021e-16
24650.056 3.6751121095002253e-16
24700.056 4.098215249701893e-16
24750.056 6.748417456660415e-16
24800.056 8.971178646900533e-16
24850.056 1.0950389631880058e-15
24900.056 1.3488439239865722e-15
24950.056 1.8869549443500906e-15
25000.056 2.6197500224598904e-15
25050.056 2.8117889977001984e-15
25100.056 3.3830070909598073e-15
25150.056 2.93165596234178e-15
25200.056 4.618933904684522e-15
25250.056 3.6278116808695824e-15
25300.056 2.940120223719694e-15
25350.056 2.794670391208038e-15
25400.056 5.236879630440001e-15
25450.056 2.427116048449755e-15
25500.056 2.0646784298799473e-15
25550.056 4.030271894120176e-15
25600.056 1.7609402666935455e-15
25650.056 7.921431155566901e-16
25700.056 8.572942824132495e-16
25750.056 4.786011593387809e-16
25800.056 1.7753843073225354e-15
25850.056 3.809137325764211e-16
25900.056 3.883211546005378e-16
25950.056 4.0224269132216634e-16
26000.056 1.260896953728862e-15
26050.056 4.895102940348207e-16
26100.056 1.0638698119361223e-15
26150.056 7.89985632182794e-16
26200.056 9.163131767531967e-16
26250.056 2.5225576985228632e-15
26300.056 1.1723196800801382e-15
26350.056 3.990759531501086e-15
26400.056 8.542110048058774e-15
26450.056 5.596456911790609e-15
26500.056 1.0306401625579206e-14
26550.056 3.550539465320676e-15
26600.056 3.057433963609324e-15
26650.056 1.2420647261998425e-15
26700.056 1.3695701321632367e-15
26750.056 1.943290497339795e-15
26800.056 4.024800300768328e-15
26850.056 3.908622441700708e-15
26900.056 8.07319865982954e-15
26950.056 2.849287571610517e-15
27000.056 8.575371974490132e-15
27050.056 1.4438704245599467e-14
27100.056 2.6221636835491445e-15
27150.056 1.169086973569985e-14
27200.056 2.831743930380236e-15
27250.056 5.2367615277612585e-15
27300.056 2.7538361959100143e-14
27350.056 1.174480641518908e-14
27400.056 2.971564703969469e-15
27450.056 1.8067513599602167e-14
27500.056 1.957984266139819e-14
27550.056 7.724884668369283e-15
27600.056 1.7009982396800022e-14
27650.056 7.778957459690812e-15
27700.056 9.305679581499383e-15
27750.056 2.5103344927500965e-14
27800.056 1.5014922911600993e-14
27850.056 2.221245751429852e-14
27900.056 2.961495521310744e-14
27950.056 3.3634308422895437e-14
28000.056 4.546909035049916e-14
28050.056 9.512670249602295e-15
28100.056 4.701627651471294e-14
28150.056 3.87161068568002e-14
28200.056 1.3106675135096473e-14
28250.056 5.2191638239921623e-14
28300.056 3.6330851971518896e-14
28350.056 9.052744775794562e-15
28400.056 3.77192899349102e-14
28450.056 2.024125701014699e-14
28500.056 1.0798400970454325e-14
28550.056 1.1883100390231497e-14
28600.056 4.26606560564154e-14
28650.056 8.194219959035252e-15
28700.056 3.8824925501923507e-14
28750.056 5.100820169024093e-14
28800.056 7.416842608502092e-15
28850.056 1.2077956295910366e-13
28900.056 1.5425187895397535e-14
28950.056 1.9140977467492306e-14
29000.056 1.1519659749785904e-14
29050.056 2.925484366391768e-14
29100.056 1.9222425102902553e-15
29150.056 2.005032517046228e-15
29200.056 9.039266080155045e-14
29250.056 2.3377240055335417e-14
29300.056 5.865601715745457e-15
29350.056 5.199992870796156e-14
29400.056 5.451302771979453e-14
29450.056 5.8910961711846566e-15
29500.056 9.334727928626792e-14
29550.056 3.062852121027445e-14
29600.056 9.246631733351258e-15
29650.056 7.572518753689474e-14
29700.056 2.192336396556004e-14
29750.056 1.1608278775311415e-13
29800.056 1.8453211619475018e-14
29850.056 1.3088573146592e-13
29900.056 3.626545086918322e-14
29950.056 2.752237555535197e-14
30000.056 9.656269438564197e-17
30050.056 2.1220974847983248e-14
30100.056 7.005707793157022e-14
30150.056 8.94696185287498e-14
30200.056 1.898668597699986e-13
30250.056 1.5397337317168147e-13
30300.056 1.9856163869860776e-13
30350.056 5.2938548143765636e-14
30400.056 3.844746378199107e-13
30450.056 5.418608670493699e-13
30500.056 3.776050280329008e-14
30550.056 6.206161477980232e-14
30600.056 3.3420165972581883e-12
30650.056 1.0620858700640867e-12
30700.056 5.360443255223604e-14
30750.056 5.856555635839412e-13
30800.056 1.621319660722056e-12
30850.056 1.2467912274661876e-12
30900.056 3.081956354654016e-13
30950.056 3.260472049742075e-13
31000.056 4.886500750240025e-13
31050.056 6.920141394005684e-14
31100.056 2.9268518897368413e-14
31150.056 3.5027397143736143e-13
31200.056 1.7349555258968586e-12
31250.056 1.054213181958703e-12
31300.056 1.0480206086334427e-13
31350.056 1.5220165683668864e-12
31400.056 7.375938991630305e-13
31450.056 6.972145131473401e-13
31500.056 2.066436086454124e-13
31550.056 5.727686315976618e-13
31600.056 4.549766237845798e-13
31650.056 2.21565577551183e-13
31700.056 1.79916687488647e-13
31750.056 6.384844530404077e-14
31800.056 1.0295775451099316e-13
31850.056 9.594075904248314e-15
31900.056 2.9840022864284854e-14
31950.056 8.882459868476805e-15
32000.056 7.110647555209143e-15
32050.056 3.3120977047053596e-15
32100.056 2.458208474483401e-15
32150.056 1.1124907649324024e-15
32200.056 2.634713101427884e-16
32250.056 6.554524195421855e-16
32300.056 4.797521444699168e-17
32350.056 1.7087979104480563e-16
32400.056 4.6543086534721716e-18
32450.056 8.38233242630477e-17
32500.056 3.305700112720682e-18
32550.056 4.216046106830294e-17
32600.056 1.0391348888791745e-18
32650.056 5.304705614226107e-17
32700.056 1.550272169335953e-18
32750.056 2.4168540420064574e-16
32800.056 3.5903087850294973e-17
32850.056 2.1077253979962342e-15
32900.056 7.003782857101866e-16
32950.056 2.638087042460103e-15
33000.056 5.247244598138444e-16
33050.056 8.398942744417614e-17
33100.056 8.62590080617683e-18
33150.056 2.1936988906015613e-20
33200.056 6.955853488942471e-18
33250.056 1.741236172178046e-17
33300.056 1.2608974243772613e-15
33350.056 2.6223534794915994e-16
33400.056 3.289496392899704e-15
33450.056 3.620871017050516e-17
33500.056 1.2190129970616914e-15
33550.056 9.834512135851158e-17
33600.056 6.399059172413029e-16
33650.056 1.1187090935350791e-15
33700.056 4.681764522435998e-17
33750.056 1.356544833236507e-15
33800.056 1.641847841272259e-17
33850.056 5.963543425040133e-16
33900.056 7.182975516534848e-16
33950.056 1.3412733234044493e-15
34000.056 5.865861597066768e-15
34050.056 7.117329538646306e-16
34100.056 9.464609079114915e-15
34150.056 2.4117947203428835e-15
34200.056 2.3418047039752737e-14
34250.056 4.5014641277886616e-15
34300.056 1.0064369025472637e-14
34350.056 1.2044615330127995e-13
34400.056 6.2745998225402085e-15
34450.056 5.403645859696257e-14
34500.056 7.77592473531435e-15
34550.056 1.1812255443689239e-13
