# %ECSV 1.0
# ---
# datatype:
# - {name: wav, unit: Angstrom, datatype: float64}
# - {name: flux_nu, unit: erg / (cm2 Hz s), datatype: float64}
# meta: {C/O: '1.00', Kzz: '1.0000E+05', Teff: '250.', Y: '0.28', '[Fe/H]': '-0.50', f_hole: '1.00', f_rain: '0.00', grav: '316.'}
# schema: astropy-2.0
wav flux_nu
4000.0559999999996 nan
4050.0559999999996 6.957938409600096e-20
4100.056 1.0887583588200141e-18
4150.056 5.006685586300042e-18
4200.056 9.535339959400054e-18
4250.056 3.280263922200023e-17
4300.056 7.098333073400034e-17
4350.056 1.3133700599200053e-16
4400.056 2.2324120978000083e-16
4450.056 3.6230052656000133e-16
4500.056 5.882611069300022e-16
4550.056 8.956943838600023e-16
4600.056 1.1781699721000027e-15
4650.056 1.4511742512000015e-15
4700.056 1.5221197082999996e-15
4750.056 1.3531614552999981e-15
4800.056 1.1312077632299976e-15
4850.056 7.765057698099966e-16
4900.056 5.478996408399983e-16
4950.056 4.053964066199988e-16
5000.056 2.689689300299987e-16
5050.056 1.9065928813999985e-16
5100.056 2.0723857722000045e-16
5150.056 2.352558737000003e-16
5200.056 2.6951764115000036e-16
5250.056 3.070748012900004e-16
5300.056 3.490278302800005e-16
5350.056 3.9874698868000065e-16
5400.056 4.531435901200007e-16
5450.056 5.19355151780001e-16
5500.056 5.974797410500008e-16
5550.056 6.83448926080001e-16
5600.056 7.744660418600011e-16
5650.056 8.65368736670001e-16
5700.056 9.197897073000012e-16
5750.056 9.4864240775e-16
5800.056 8.856451386799984e-16
5850.056 6.273164256099928e-16
5900.056 1.8079153649380653e-16
5950.056 1.2320592813100208e-15
6000.056 2.717440034100022e-15
6050.056 4.928887989500035e-15
6100.056 7.88366468410005e-15
6150.056 1.1862114162200064e-14
6200.056 1.7345710361000085e-14
6250.056 2.4253756111000094e-14
6300.056 3.408799393900015e-14
6350.056 4.719920353200019e-14
6400.056 6.399540564400029e-14
6450.056 7.52057518559999e-14
6500.056 9.729933435000094e-14
6550.056 1.3436749182999975e-13
6600.056 1.8693762546000186e-13
6650.056 2.7166204400000155e-13
6700.056 3.6931473267000196e-13
6750.056 5.101425568700023e-13
6800.056 6.10382056970001e-13
6850.056 6.146997765299992e-13
6900.056 4.646383280199946e-13
6950.056 3.11811854830003e-13
7000.056 3.5860749804999576e-13
7050.056 3.6723129798000115e-13
7100.056 4.2284214034999993e-13
7150.056 2.9868499686799204e-13
7200.056 1.76428869901001e-13
7250.056 2.0455793997999023e-13
7300.056 2.1891895032300877e-13
7350.056 3.5311038060500204e-13
7400.056 5.161714704500029e-13
7450.056 7.286257210900065e-13
7500.056 9.009601590900021e-13
7550.056 1.018800030360002e-12
7600.056 1.0858379418000006e-12
7650.056 7.011387341719895e-13
7700.056 7.355784688500137e-13
7750.056 1.4008577384000081e-12
7800.056 1.6442627657000064e-12
7850.056 1.9765338575999982e-12
7900.056 2.2791659083000065e-12
7950.056 2.5817734386000034e-12
8000.056 3.1091860846000104e-12
8050.056 3.55737611150001e-12
8100.056 2.3593343762899436e-12
8150.056 9.681025888000631e-13
8200.056 2.7154737763300047e-12
8250.056 2.88435693006739e-12
8300.056 2.8700673856199455e-12
8350.056 3.512022565090038e-12
8400.056 5.272604606300152e-12
8450.056 8.435411379000089e-12
8500.056 1.1016032895600081e-11
8550.056 1.3988619797000137e-11
8600.056 1.7320735481000126e-11
8650.056 1.9725155826000065e-11
8700.056 1.974037275800001e-11
8750.056 2.0410396612000048e-11
8800.056 1.8939881448999854e-11
8850.056 1.3820681216699443e-11
8900.056 1.7463034968897901e-12
8950.056 3.876135241830205e-13
9000.056 3.771400208699491e-13
9050.056 3.279188398689993e-12
9100.056 3.2791553124954154e-12
9150.056 4.547911883075752e-12
9200.056 9.363059742010842e-12
9250.056 6.468827328589248e-12
9300.056 1.1808671027999452e-14
9350.056 4.962520778521442e-15
9400.056 3.328528868727818e-13
9450.056 4.130152403166486e-14
9500.056 5.981384338803845e-14
9550.056 4.579531735193769e-14
9600.056 1.24855351524414e-13
9650.056 4.730140620365832e-13
9700.056 4.210676976675889e-12
9750.056 3.816027001970481e-12
9800.056 5.927705004099778e-12
9850.056 9.63292158939998e-12
9900.056 1.6848857250300793e-11
9950.056 1.9321048612100465e-11
10000.056 1.366604567413925e-11
10050.056 4.4100895242996494e-12
10100.056 2.499749831799976e-12
10150.056 1.3149382483399427e-12
10200.056 4.15174419399999e-13
10250.056 3.2719094680700017e-13
10300.056 5.232296347749757e-13
10350.056 2.184034928480087e-13
10400.056 4.189656956500062e-13
10450.056 4.853806630099796e-13
10500.056 5.232822224100022e-13
10550.056 5.508825434199972e-13
10600.056 4.798485735499971e-13
10650.056 3.660827179199943e-13
10700.056 2.5078280541999546e-13
10750.056 1.8066416526999587e-13
10800.056 1.3819080576800048e-13
10850.056 1.0817997304999865e-13
10900.056 8.590862540299826e-14
10950.056 5.945304917199952e-14
11000.056 3.7819692771998425e-14
11050.056 1.8950393080599423e-14
11100.056 6.250845668857587e-15
11150.056 1.3633653240629427e-15
11200.056 4.960335157741996e-16
11250.056 4.1975666618369545e-16
11300.056 1.3419299110567041e-15
11350.056 4.316640567277099e-16
11400.056 3.1590487659585486e-15
11450.056 1.4885280090779247e-15
11500.056 1.7321244298592866e-15
11550.056 7.299438720340723e-16
11600.056 2.51332515563869e-16
11650.056 1.4867179257978811e-15
11700.056 3.1080625384521245e-15
11750.056 2.0737973019274585e-15
11800.056 6.699436356249899e-15
11850.056 6.804257898650121e-15
11900.056 9.109045723100138e-15
11950.056 1.1811686693700064e-14
12000.056 1.2228775748700411e-14
12050.056 1.6217774859800288e-14
12100.056 1.8687909886400247e-14
12150.056 2.697989185680055e-14
12200.056 3.546103952960007e-14
12250.056 6.169878010360155e-14
12300.056 9.932734305000374e-14
12350.056 1.2539112374700303e-13
12400.056 2.0467397261000394e-13
12450.056 3.5576137548001e-13
12500.056 5.137727973199974e-13
12550.056 6.206970824700137e-13
12600.056 9.968386988100331e-13
12650.056 1.6590281634700464e-12
12700.056 2.226133910900001e-12
12750.056 2.215525471600015e-12
12800.056 2.057348761099972e-12
12850.056 1.4754028188999555e-12
12900.056 1.0205361605799949e-12
12950.056 9.039976850900068e-13
13000.056 1.0287530319700688e-12
13050.056 7.107929963379699e-13
13100.056 9.48156267717955e-13
13150.056 5.07752989347043e-13
13200.056 5.872569392603507e-13
13250.056 8.095811411937364e-13
13300.056 2.223888427997962e-13
13350.056 1.6476513973502587e-13
13400.056 3.0521282442002673e-14
13450.056 2.2673300370243426e-15
13500.056 1.6631003511707066e-16
13550.056 5.6314245133715855e-18
13600.056 4.167674634405991e-19
13650.056 3.776394432245975e-18
13700.056 1.1727488614284945e-18
13750.056 3.3232942736356883e-17
13800.056 4.551206995590343e-17
13850.056 5.110455563892758e-18
13900.056 3.591863601452061e-17
13950.056 1.5944933906125356e-17
14000.056 1.0785899792373915e-16
14050.056 9.934916390512458e-17
14100.056 9.910508774655031e-17
14150.056 8.218944092451322e-16
14200.056 7.024534870527081e-16
14250.056 1.521866702930437e-15
14300.056 7.26704936030798e-15
14350.056 5.593628460145816e-15
14400.056 5.285418292066669e-15
14450.056 1.606445574952913e-14
14500.056 5.5502278021187457e-14
14550.056 1.398965636593569e-13
14600.056 2.824480232363118e-13
14650.056 5.385234139595578e-14
14700.056 1.6193528752870004e-14
14750.056 6.85940058089952e-15
14800.056 4.222301851237273e-15
14850.056 4.2165301226873745e-15
14900.056 2.6389355571657244e-15
14950.056 9.435070003522157e-16
15000.056 6.328114741911713e-15
15050.056 1.9378103420037085e-14
15100.056 4.0628616295510226e-15
15150.056 7.835111505598689e-16
15200.056 8.465540884658988e-15
15250.056 2.172822536755189e-14
15300.056 4.8004189724028814e-14
15350.056 6.694242319919844e-14
15400.056 8.4011360405108e-14
15450.056 1.7661439086264744e-13
15500.056 3.8008640646799425e-13
15550.056 1.1016792940431788e-12
15600.056 2.521153758109923e-12
15650.056 5.342669201900433e-12
15700.056 9.044233592300225e-12
15750.056 1.110469154340007e-11
15800.056 1.2994395398199995e-11
15850.056 1.5158732129300402e-11
15900.056 1.552811489779991e-11
15950.056 1.7268891353999978e-11
16000.056 1.5875040407999807e-11
16050.056 1.2789040200799682e-11
16100.056 8.4067686412e-12
16150.056 4.7601710375996556e-12
16200.056 1.6003139883899623e-12
16250.056 5.824108376769894e-13
16300.056 2.041465374459609e-13
16350.056 1.395437627760685e-13
16400.056 1.2568096681004498e-13
16450.056 1.6042491309213394e-13
16500.056 1.0176045757308261e-13
16550.056 1.3798547895704572e-13
16600.056 5.868787775525055e-13
16650.056 2.1149921512816413e-13
16700.056 6.270378267072092e-14
16750.056 1.8785918693394008e-13
16800.056 2.540312730059635e-13
16850.056 2.3150033352336476e-13
16900.056 8.074789048734012e-14
16950.056 6.078919450404905e-14
17000.056 2.3173071223774138e-14
17050.056 3.37865147714508e-14
17100.056 9.240297593557428e-14
17150.056 6.487697755627407e-14
17200.056 2.1910883079090438e-13
17250.056 3.1753257470791965e-14
17300.056 3.388935262381401e-14
17350.056 6.776720897295753e-14
17400.056 1.3656955062575303e-13
17450.056 1.7591313057528979e-13
17500.056 2.914209048240043e-13
17550.056 2.5664686088540204e-13
17600.056 2.6334142517401376e-13
17650.056 1.3846605204809327e-13
17700.056 1.1767850546663008e-13
17750.056 8.211640146065654e-14
17800.056 1.3278499078788508e-13
17850.056 6.211473723961372e-14
17900.056 3.4825571382616785e-14
17950.056 2.3057549849896406e-14
18000.056 3.5028378837568717e-14
18050.056 1.3799663337067101e-14
18100.056 1.1803997593183733e-14
18150.056 4.8204027748973174e-15
18200.056 3.367245621950108e-15
18250.056 1.4208748320407305e-14
18300.056 7.990050609165776e-16
18350.056 7.935575060730589e-16
18400.056 1.9378641881943955e-16
18450.056 3.573823765098147e-15
18500.056 2.29281015446694e-15
18550.056 7.019449058354505e-16
18600.056 2.7985653038192145e-15
18650.056 2.641503296951495e-15
18700.056 6.903763085183765e-17
18750.056 1.283127857244944e-16
18800.056 6.384077437827589e-15
18850.056 4.2584734652825874e-15
18900.056 7.218362957240816e-15
18950.056 6.967024212590885e-15
19000.056 6.959680246891375e-16
19050.056 3.587150192286888e-16
19100.056 1.9814047148714083e-15
19150.056 8.593693673977354e-16
19200.056 2.4190562636936225e-15
19250.056 1.945020379549195e-15
19300.056 9.188083541015846e-16
19350.056 1.2927453455484303e-15
19400.056 6.994797226413306e-16
19450.056 4.840630886670849e-16
19500.056 5.45743611749943e-16
19550.056 1.303596868097965e-15
19600.056 2.2058460594607316e-15
19650.056 1.7711555550373165e-15
19700.056 2.8781993002110935e-15
19750.056 2.8111201617133923e-15
19800.056 1.6721001512536243e-15
19850.056 2.2608640731936752e-15
19900.056 3.72417769248682e-15
19950.056 2.937493895547096e-15
20000.056 3.116573887325919e-15
20050.056 2.7806439908053318e-15
20100.056 3.7379791181936594e-15
20150.056 2.5070596742367304e-15
20200.056 1.9090124144447514e-15
20250.056 3.2641822561544692e-15
20300.056 3.5015793282259486e-15
20350.056 3.5026511432797634e-15
20400.056 3.597940269640025e-15
20450.056 3.916699587790335e-15
20500.056 3.5961815734001014e-15
20550.056 3.2826959057998646e-15
20600.056 2.955530214400144e-15
20650.056 2.6254864003998596e-15
20700.056 2.304584692299948e-15
20750.056 1.9568663271999686e-15
20800.056 1.6486738822999618e-15
20850.056 1.419332687899983e-15
20900.056 1.2109156420999873e-15
20950.056 1.0484398138199871e-15
21000.056 9.373000585499915e-16
21050.056 8.808075605799958e-16
21100.056 8.643555430899996e-16
21150.056 9.090595706100077e-16
21200.056 1.0028914532800132e-15
21250.056 1.1589823306000071e-15
21300.056 1.3590003458000293e-15
21350.056 1.6034139398199863e-15
21400.056 1.9831966854000844e-15
21450.056 2.170164790790075e-15
21500.056 2.3374726294600026e-15
21550.056 2.5558708776599807e-15
21600.056 2.6382653737030648e-15
21650.056 2.7112062121882363e-15
21700.056 2.7975024000749108e-15
21750.056 2.8901144663205965e-15
21800.056 2.5619991323579182e-15
21850.056 2.5765736695312574e-15
21900.056 2.2068868820997087e-15
21950.056 1.379675782054224e-15
22000.056 1.525967253971325e-16
22050.056 2.6209019956271847e-16
22100.056 6.517110601056868e-16
22150.056 3.960772698512319e-16
22200.056 3.7854275656554735e-16
22250.056 2.919363890729645e-16
22300.056 1.1829577413229547e-16
22350.056 2.27718834772138e-16
22400.056 1.1573483051147658e-16
22450.056 1.824827368280234e-16
22500.056 1.432206196634678e-16
22550.056 5.1969879530695024e-17
22600.056 3.7652668973332506e-17
22650.056 3.186009368515079e-17
22700.056 5.648292536162939e-17
22750.056 1.0739443668571912e-16
22800.056 1.6287151288105043e-16
22850.056 8.592954564801845e-17
22900.056 6.048160003909715e-17
22950.056 4.105114572871367e-17
23000.056 2.936875880595469e-17
23050.056 1.9319190563617962e-17
23100.056 4.3894263962616144e-16
23150.056 4.116271224647412e-16
23200.056 2.3521865116830107e-17
23250.056 1.6563764371255245e-16
23300.056 7.21250095711357e-17
23350.056 1.2625181816676424e-16
23400.056 9.532613763279321e-17
23450.056 4.31884253097284e-17
23500.056 3.478110717540273e-17
23550.056 8.443432789375039e-17
23600.056 2.352683875184485e-16
23650.056 3.359230058167269e-16
23700.056 3.6889867980861023e-17
23750.056 7.419572056607147e-17
23800.056 3.8835162485045474e-16
23850.056 1.6856916910767357e-16
23900.056 3.716103467862628e-16
23950.056 1.747876491256491e-16
24000.056 5.417879486630609e-16
24050.056 6.008612045213334e-16
24100.056 9.870742936403153e-16
24150.056 1.4718746559760852e-15
24200.056 1.364990853588895e-15
24250.056 1.1322668679322423e-15
24300.056 2.5576318259109188e-15
24350.056 2.8486465365898096e-15
24400.056 5.3738990769710275e-15
24450.056 7.061561030290615e-15
24500.056 7.740329419329206e-15
24550.056 1.3457640312520705e-14
24600.056 2.0033750686999422e-14
24650.056 2.6928621589402257e-14
24700.056 2.6551042014957667e-14
24750.056 4.0934181968803366e-14
24800.056 4.623085087030283e-14
24850.056 5.4269743425229066e-14
24900.056 5.326223686112528e-14
24950.056 7.145503350374493e-14
25000.056 1.0846204525749289e-13
25050.056 7.99446359337075e-14
25100.056 1.0595423491198267e-13
25150.056 6.49345480031557e-14
25200.056 1.1431725368371243e-13
25250.056 6.067467412908736e-14
25300.056 4.59753491408526e-14
25350.056 3.3747436063371414e-14
25400.056 7.319473447145079e-14
25450.056 2.005773820490736e-14
25500.056 1.6382410717270115e-14
25550.056 5.113108168882012e-14
25600.056 1.905531487125078e-14
25650.056 6.850223462339581e-15
25700.056 5.113963932203315e-15
25750.056 2.3365036336934773e-15
25800.056 9.19219655030158e-15
25850.056 1.823641049587766e-15
25900.056 2.2656627021548644e-15
25950.056 1.1164226916620416e-15
26000.056 5.838529563214621e-15
26050.056 1.3884318601101297e-15
26100.056 3.8214813254952245e-15
26150.056 2.1124779229425556e-15
26200.056 2.5541430840142315e-15
26250.056 1.0359742815384741e-14
26300.056 3.07663001663821e-15
26350.056 2.472380331981855e-14
26400.056 6.183871698979546e-14
26450.056 2.5004625776228933e-14
26500.056 7.039228510448937e-14
26550.056 1.0434977335592615e-14
26600.056 8.080790579348926e-15
26650.056 2.4911799689066384e-15
26700.056 2.656260200053558e-15
26750.056 3.793576162459354e-15
26800.056 1.0538654482788192e-14
26850.056 8.459636594142615e-15
26900.056 2.4436826948589147e-14
26950.056 6.828461060282158e-15
27000.056 2.708908390601092e-14
27050.056 5.268743902289751e-14
27100.056 5.033628501644747e-15
27150.056 3.861126819999913e-14
27200.056 5.50969508211974e-15
27250.056 1.3282349436818323e-14
27300.056 1.2469175869179996e-13
27350.056 3.5925466780818936e-14
27400.056 5.200085300961421e-15
27450.056 5.561526275060813e-14
27500.056 7.179496714775007e-14
27550.056 1.7498715359987813e-14
27600.056 4.6944410014102543e-14
27650.056 1.608814744127165e-14
27700.056 2.0727933318238288e-14
27750.056 8.556266211480539e-14
27800.056 3.588613147290215e-14
27850.056 7.315754182958561e-14
27900.056 1.156955616226384e-13
27950.056 1.490895611476952e-13
28000.056 2.2466395578399574e-13
28050.056 2.4668661458708942e-14
28100.056 3.0413898766982535e-13
28150.056 2.2070322043986085e-13
28200.056 4.350901183506894e-14
28250.056 4.415915403617898e-13
28300.056 4.008865440341848e-13
28350.056 4.7609312844316864e-14
28400.056 2.7152554542599516e-13
28450.056 3.7744656516314343e-13
28500.056 1.3104985494332905e-13
28550.056 5.453566929870946e-14
28600.056 4.846105014563025e-13
28650.056 1.0691046810008298e-13
28700.056 4.275281468736576e-13
28750.056 8.003192738002163e-13
28800.056 1.1849983025141155e-13
28850.056 1.2956731887171857e-12
28900.056 3.2947754042446693e-13
28950.056 3.9540353085098676e-13
29000.056 1.900131480724863e-13
29050.056 5.099589472271157e-13
29100.056 1.0104948744289027e-13
29150.056 9.488507801751028e-14
29200.056 1.5293112555461878e-12
29250.056 4.985848190135298e-13
29300.056 2.648483190183477e-13
29350.056 1.160714983464196e-12
29400.056 9.578120508540619e-13
29450.056 1.1738815295688181e-13
29500.056 1.8733115109962308e-12
29550.056 3.871782551402885e-13
29600.056 2.9746384110547326e-13
29650.056 2.241147117734573e-12
29700.056 2.4491729286032866e-13
29750.056 1.646930316833117e-12
29800.056 4.781045675397931e-13
29850.056 2.642841813487927e-12
29900.056 7.676804341940886e-13
29950.056 7.052035675490078e-13
30000.056 3.654424800719432e-15
30050.056 2.4763334983581115e-13
30100.056 9.746993143934428e-13
30150.056 2.173578019112127e-12
30200.056 1.8555479688088364e-12
30250.056 2.5302216162380686e-12
30300.056 3.6571751731114784e-12
30350.056 4.556675943023755e-13
30400.056 5.016039319460568e-12
30450.056 6.079959130321644e-12
30500.056 7.02339629245198e-13
30550.056 9.035071625668852e-13
30600.056 3.873025944301189e-11
30650.056 1.2815431989856911e-11
30700.056 1.6869535981416086e-12
30750.056 8.511961122912314e-12
30800.056 1.756847733876284e-11
30850.056 1.3611420039202336e-11
30900.056 4.902405358808414e-12
30950.056 3.378870367028088e-12
31000.056 5.700894457620761e-12
31050.056 1.2668191346979551e-12
31100.056 6.910977306196789e-13
31150.056 3.851149433713573e-12
31200.056 2.1231998918897126e-11
31250.056 8.363141019283221e-12
31300.056 1.5668056432689018e-12
31350.056 1.6682667903181398e-11
31400.056 7.51218801992227e-12
31450.056 7.874195077937191e-12
31500.056 2.1950282096746075e-12
31550.056 5.704769035802047e-12
31600.056 4.464329487174605e-12
31650.056 2.700783685726145e-12
31700.056 1.994508638732603e-12
31750.056 7.451744572909135e-13
31800.056 1.3635185713670034e-12
31850.056 1.5012421945073654e-13
31900.056 4.641821712261076e-13
31950.056 1.669377638312959e-13
32000.056 1.0549950823736286e-13
32050.056 8.421379054903923e-14
32100.056 7.18831877577653e-14
32150.056 4.6039010325250217e-14
32200.056 1.38040384453836e-14
32250.056 3.425338614883452e-14
32300.056 4.448830061772311e-15
32350.056 1.718675360191255e-14
32400.056 7.140370602672474e-16
32450.056 1.053105474671023e-14
32500.056 6.191124518542781e-16
32550.056 8.18037070103567e-15
32600.056 2.8517595373028205e-16
32650.056 1.4018858222100188e-14
32700.056 5.150440300482523e-16
32750.056 5.623979394661125e-14
32800.056 1.1874067131421713e-14
32850.056 2.5588480930864694e-13
32900.056 1.2766849159403273e-13
32950.056 2.6079965171002265e-13
33000.056 5.129102859661564e-14
33050.056 1.747258464284257e-14
33100.056 1.8904809625837906e-15
33150.056 4.478623479982261e-18
33200.056 5.024522420458527e-16
33250.056 1.2297163327096365e-15
33300.056 6.706387942143447e-14
33350.056 3.492627146644065e-14
33400.056 2.854822985717633e-13
33450.056 9.040435541538344e-15
33500.056 1.6733621507311845e-13
33550.056 1.4140968901349982e-14
33600.056 7.006826672802303e-14
33650.056 9.439386689750359e-14
33700.056 6.0736236584891574e-15
33750.056 1.0744064549524903e-13
33800.056 2.0714349017148808e-15
33850.056 4.605342210000551e-14
33900.056 4.710124675606526e-14
33950.056 6.804113489591145e-14
34000.056 2.318929229120885e-13
34050.056 3.377261237812231e-14
34100.056 3.250530215949406e-13
34150.056 7.641305364138309e-14
34200.056 5.577414480647888e-13
34250.056 1.3553761827158881e-13
34300.056 2.6804934597055346e-13
34350.056 2.195972686082313e-12
34400.056 1.5431957548813748e-13
34450.056 1.3474865333392183e-12
34500.056 2.3015936539993507e-13
34550.056 1.6434136789894681e-12
