# %ECSV 1.0
# ---
# datatype:
# - {name: wav, unit: Angstrom, datatype: float64}
# - {name: flux_nu, unit: erg / (cm2 Hz s), datatype: float64}
# meta: {C/O: '1.00', Kzz: '1.0000E+05', Teff: '200.', Y: '0.28', '[Fe/H]': '-0.50', f_hole: '1.00', f_rain: '0.00', grav: '100.'}
# schema: astropy-2.0
wav flux_nu
4000.0559999999996 nan
4050.0559999999996 9.475926790500112e-21
4100.056 1.0734968687900117e-19
4150.056 3.6376943087000257e-19
4200.056 6.231909921500035e-19
4250.056 2.108451808300014e-18
4300.056 4.5881620036000215e-18
4350.056 8.503257316900033e-18
4400.056 1.273520012300002e-17
4450.056 1.8450054750700062e-17
4500.056 3.3541943053000135e-17
4550.056 5.746539742500021e-17
4600.056 8.704054931300026e-17
4650.056 1.124959138600001e-16
4700.056 1.2031969662000013e-16
4750.056 1.2257642378000005e-16
4800.056 1.227130628299999e-16
4850.056 8.773742164099958e-17
4900.056 6.515361353999984e-17
4950.056 5.1921101947999894e-17
5000.056 3.6173392375999827e-17
5050.056 2.5167461764999992e-17
5100.056 3.010254155500017e-17
5150.056 3.8539143070000057e-17
5200.056 4.706669886700009e-17
5250.056 5.534857285500009e-17
5300.056 6.505108507500013e-17
5350.056 7.667836079000014e-17
5400.056 8.690529756500014e-17
5450.056 1.0254998794500037e-16
5500.056 1.243231969500002e-16
5550.056 1.5028822192000027e-16
5600.056 1.7612665219000025e-16
5650.056 1.982910316400001e-16
5700.056 1.9729385155000037e-16
5750.056 2.0671936843000015e-16
5800.056 1.9762819970999984e-16
5850.056 1.33889962300998e-16
5900.056 2.784137318731124e-17
5950.056 2.2244390830600567e-16
6000.056 5.619140869500042e-16
6050.056 1.1961301146300108e-15
6100.056 2.084678281200015e-15
6150.056 3.220616853600018e-15
6200.056 4.700518175200022e-15
6250.056 6.323389027900013e-15
6300.056 8.822557139700022e-15
6350.056 1.2198660380600027e-14
6400.056 1.6285672537000062e-14
6450.056 1.6216131345099855e-14
6500.056 1.9299554982500296e-14
6550.056 2.712096853699965e-14
6600.056 3.941055239800063e-14
6650.056 6.271646921200044e-14
6700.056 9.253783727300061e-14
6750.056 1.3150958534000072e-13
6800.056 1.5856326742000028e-13
6850.056 1.6384106818999988e-13
6900.056 1.1616520475799815e-13
6950.056 5.879757530000147e-14
7000.056 7.830919670199773e-14
7050.056 7.90444597200008e-14
7100.056 9.740188392799975e-14
7150.056 5.687933297240394e-14
7200.056 1.8719153973066208e-14
7250.056 1.9333373125528665e-14
7300.056 2.297498120488195e-14
7350.056 5.578559269760056e-14
7400.056 1.1444290605600136e-13
7450.056 2.2450243946000403e-13
7500.056 3.3304424246000147e-13
7550.056 4.198035878700015e-13
7600.056 4.762767587400008e-13
7650.056 3.1499022484999514e-13
7700.056 3.3361175039600674e-13
7750.056 6.383862643000033e-13
7800.056 6.836934383900014e-13
7850.056 7.164238934599932e-13
7900.056 7.280390357500024e-13
7950.056 8.512027405999981e-13
8000.056 8.925746168800015e-13
8050.056 9.627441478000037e-13
8100.056 4.0543285581297954e-13
8150.056 5.233051985230865e-14
8200.056 3.2983851633776674e-13
8250.056 3.777738968675075e-13
8300.056 2.519972667823451e-13
8350.056 3.2811591995550794e-13
8400.056 6.36609570142038e-13
8450.056 1.3661825788800191e-12
8500.056 1.9480366262000152e-12
8550.056 2.592022137700028e-12
8600.056 3.2686748656000254e-12
8650.056 3.5519043580999956e-12
8700.056 2.90013524619998e-12
8750.056 2.525916200699989e-12
8800.056 1.7546220037999538e-12
8850.056 9.069178815699381e-13
8900.056 2.3223403683598667e-14
8950.056 8.329269159503288e-16
9000.056 9.85026861510006e-16
9050.056 1.9161740695834656e-14
9100.056 2.2839948712998714e-14
9150.056 4.9592669928948787e-14
9200.056 2.0513621346205508e-13
9250.056 1.1918088023964804e-13
9300.056 6.67682507569824e-17
9350.056 8.419064054442147e-18
9400.056 1.150593438565113e-15
9450.056 1.2245292890859017e-16
9500.056 2.5160578540303e-16
9550.056 1.4888502673924515e-16
9600.056 7.254073785394186e-16
9650.056 3.900687328372485e-15
9700.056 7.747655269156418e-14
9750.056 4.2686777979927414e-14
9800.056 6.779601131239942e-14
9850.056 1.084888962931187e-13
9900.056 2.0033113718901535e-13
9950.056 2.093249192990105e-13
10000.056 1.6008160510023983e-13
10050.056 5.8913453674995e-14
10100.056 3.1136456986999844e-14
10150.056 1.3058185038999259e-14
10200.056 1.7373435370759495e-15
10250.056 9.647245698627021e-16
10300.056 2.9058617622548105e-15
10350.056 7.951630289970613e-16
10400.056 3.464833805290268e-15
10450.056 5.268693056799583e-15
10500.056 7.825814265200197e-15
10550.056 1.0610649904199968e-14
10600.056 9.78824294260002e-15
10650.056 7.077847438099856e-15
10700.056 4.203844648399907e-15
10750.056 2.6834415880699033e-15
10800.056 1.9281110346600292e-15
10850.056 1.3908623812999718e-15
10900.056 1.0216257358299708e-15
10950.056 6.118808293899961e-16
11000.056 3.341418096409805e-16
11050.056 1.528260790721926e-16
11100.056 4.465782306274192e-17
11150.056 7.146406668690638e-18
11200.056 1.623376347889005e-18
11250.056 6.469431332362072e-19
11300.056 3.801137974852543e-18
11350.056 7.506983859780439e-19
11400.056 1.0390399913774038e-17
11450.056 4.3769757280036095e-18
11500.056 5.5448563231095385e-18
11550.056 2.0856319341259745e-18
11600.056 3.489640625328191e-19
11650.056 3.233043169146688e-18
11700.056 7.794516380986398e-18
11750.056 5.3890266975211385e-18
11800.056 1.821014559507957e-17
11850.056 1.5724887079956215e-17
11900.056 2.643633677032105e-17
11950.056 3.9157531135701e-17
12000.056 3.5076771351340853e-17
12050.056 4.92122776037017e-17
12100.056 5.792611475775711e-17
12150.056 9.278944767498795e-17
12200.056 1.2932350620040206e-16
12250.056 3.5476978772173794e-16
12300.056 6.881012833275409e-16
12350.056 8.742647270540402e-16
12400.056 1.9313356205700565e-15
12450.056 4.646786406100188e-15
12500.056 7.852284381999923e-15
12550.056 1.0526490923500242e-14
12600.056 1.963042956390099e-14
12650.056 4.303742261560189e-14
12700.056 6.351748089699951e-14
12750.056 5.73842677663015e-14
12800.056 5.107687023099837e-14
12850.056 2.7713353717898473e-14
12900.056 1.3304965059110468e-14
12950.056 1.10040317040019e-14
13000.056 1.2376415489751564e-14
13050.056 7.034242043194521e-15
13100.056 9.80604857498745e-15
13150.056 3.365705317337031e-15
13200.056 4.62889182525386e-15
13250.056 8.89334123598903e-15
13300.056 1.917218768708554e-15
13350.056 1.5293166838452348e-15
13400.056 4.3286680995271095e-16
13450.056 3.098022423047909e-17
13500.056 1.2730294772132075e-18
13550.056 2.7295045376250787e-20
13600.056 1.0170344724476784e-21
13650.056 8.180872382219533e-21
13700.056 2.0650829337170743e-21
13750.056 7.016251378781381e-20
13800.056 9.181109850255956e-20
13850.056 1.1767660345946572e-20
13900.056 1.028963666596206e-19
13950.056 3.209959974313693e-20
14000.056 3.959008906625527e-19
14050.056 3.2979613952249553e-19
14100.056 4.117038363060957e-19
14150.056 5.960751373337664e-18
14200.056 6.158301539284124e-18
14250.056 1.57273488613457e-17
14300.056 7.002841459962796e-17
14350.056 4.5211521032897266e-17
14400.056 4.211316257703888e-17
14450.056 1.1867901961378222e-16
14500.056 4.535441343296524e-16
14550.056 1.8604691763698236e-15
14600.056 2.819126447918178e-15
14650.056 3.423778947759347e-16
14700.056 9.748587104635943e-17
14750.056 2.3178682357335477e-17
14800.056 1.7940431218187025e-17
14850.056 1.5305200651395268e-17
14900.056 7.438949375562634e-18
14950.056 1.4884784661388035e-18
15000.056 1.2342800452048135e-17
15050.056 8.050405678804827e-17
15100.056 8.704275733680414e-18
15150.056 8.811205224476556e-19
15200.056 3.306693975852293e-17
15250.056 7.710294705955871e-17
15300.056 2.3638056155694223e-16
15350.056 4.544591512150127e-16
15400.056 4.001966010688939e-16
15450.056 1.217200519403933e-15
15500.056 2.9816646032992545e-15
15550.056 1.7049125636785288e-14
15600.056 5.296724746619641e-14
15650.056 1.4997480900301797e-13
15700.056 3.2654692357901766e-13
15750.056 4.238339380179987e-13
15800.056 5.097144474000016e-13
15850.056 6.632208466600391e-13
15900.056 7.222409521899881e-13
15950.056 9.253072972499996e-13
16000.056 8.712075788599865e-13
16050.056 6.620776998999795e-13
16100.056 3.894256020200088e-13
16150.056 1.9526100296398265e-13
16200.056 4.7963116716899245e-14
16250.056 1.1999083839530978e-14
16300.056 2.763389624106611e-15
16350.056 1.4413554475249768e-15
16400.056 1.2906597649344595e-15
16450.056 1.6906967763283073e-15
16500.056 9.282337386235342e-16
16550.056 1.3185331860819809e-15
16600.056 1.0688574167895702e-14
16650.056 2.664915828095678e-15
16700.056 6.76331276151495e-16
16750.056 1.6458115279394357e-15
16800.056 3.561811468246347e-15
16850.056 3.3775706009948783e-15
16900.056 6.345151511010724e-16
16950.056 4.666357806928467e-16
17000.056 1.222624928698257e-16
17050.056 1.5095591973132264e-16
17100.056 8.014634786202521e-16
17150.056 4.0243144754819817e-16
17200.056 2.2876171721355893e-15
17250.056 1.1811551644216516e-16
17300.056 1.688471621462645e-16
17350.056 5.432881058294826e-16
17400.056 1.6312219423775486e-15
17450.056 2.354734145053227e-15
17500.056 5.118559463189567e-15
17550.056 4.8425176846915065e-15
17600.056 5.277098634664514e-15
17650.056 1.7796932315991762e-15
17700.056 1.4066166808175715e-15
17750.056 9.301888425868473e-16
17800.056 2.414136757008209e-15
17850.056 7.817435706716097e-16
17900.056 4.421265725070372e-16
17950.056 3.644039754441259e-16
18000.056 5.269085366907674e-16
18050.056 2.9454997355134607e-16
18100.056 2.479756293282506e-16
18150.056 7.546238213598698e-17
18200.056 6.366200048158335e-17
18250.056 3.0939980350160845e-16
18300.056 1.4958011985414995e-17
18350.056 1.3463900684640294e-17
18400.056 3.7044542758387555e-18
18450.056 4.996467313524275e-17
18500.056 2.9028866128149415e-17
18550.056 1.123163806005703e-17
18600.056 4.902042931466477e-17
18650.056 6.232764633596292e-17
18700.056 2.9426503858760934e-18
18750.056 3.8351624312463895e-18
18800.056 1.121382178230881e-16
18850.056 6.794752271519368e-17
18900.056 1.3800018008045685e-16
18950.056 1.179575731846218e-16
19000.056 1.4801803346715234e-17
19050.056 8.303675377089552e-18
19100.056 3.7422478933414946e-17
19150.056 1.842057334020943e-17
19200.056 4.249290609741628e-17
19250.056 3.295369098821595e-17
19300.056 1.5532725517511316e-17
19350.056 1.9475585169495777e-17
19400.056 9.658143578839491e-18
19450.056 4.405561181854882e-18
19500.056 4.349129036531281e-18
19550.056 1.3894014980441162e-17
19600.056 2.3611811629789296e-17
19650.056 1.4966821266993295e-17
19700.056 2.7774492489135596e-17
19750.056 2.8776542758925543e-17
19800.056 1.699503341737194e-17
19850.056 2.1901335480328992e-17
19900.056 3.760125928160989e-17
19950.056 2.9047358858159615e-17
20000.056 2.860449301081324e-17
20050.056 2.549976030245907e-17
20100.056 3.576938399302787e-17
20150.056 2.1344736630284583e-17
20200.056 1.4963422305860805e-17
20250.056 2.967783619365032e-17
20300.056 3.2872579684472977e-17
20350.056 3.1885739862368395e-17
20400.056 3.1307817499600315e-17
20450.056 3.297965569941391e-17
20500.056 2.8679329312801185e-17
20550.056 2.4843461793797835e-17
20600.056 2.1143670606201927e-17
20650.056 1.7741687041398444e-17
20700.056 1.4592371182399463e-17
20750.056 1.1402640327199693e-17
20800.056 8.848486996699692e-18
20850.056 7.00823862709987e-18
20900.056 5.490912218899913e-18
20950.056 4.41647350009991e-18
21000.056 3.7394208734999486e-18
21050.056 3.3657815748999737e-18
21100.056 3.2803845664000064e-18
21150.056 3.558738748700046e-18
21200.056 4.185865683800079e-18
21250.056 5.281784652900068e-18
21300.056 6.8639517558002176e-18
21350.056 8.993396986899965e-18
21400.056 1.240098397410078e-17
21450.056 1.4662579840700823e-17
21500.056 1.6756078637569914e-17
21550.056 1.9213610632000733e-17
21600.056 2.0245247610174537e-17
21650.056 2.0737455088483142e-17
21700.056 1.9663013430083843e-17
21750.056 2.101590832295518e-17
21800.056 1.860151783773045e-17
21850.056 1.9111084209986772e-17
21900.056 1.6119687262490826e-17
21950.056 9.457255340652338e-18
22000.056 8.163999190393097e-19
22050.056 1.1922131921153475e-18
22100.056 3.431286657493796e-18
22150.056 1.8733618146369046e-18
22200.056 1.6639683090340966e-18
22250.056 1.2273198324036288e-18
22300.056 3.6605877982186986e-19
22350.056 9.60383914382024e-19
22400.056 4.982613612203134e-19
22450.056 8.207306189993911e-19
22500.056 7.050691057307101e-19
22550.056 1.7280106176874572e-19
22600.056 1.1555762309841703e-19
22650.056 7.872640254125387e-20
22700.056 1.8058228838958036e-19
22750.056 4.0901367875740964e-19
22800.056 6.609197405693796e-19
22850.056 3.2838667393727187e-19
22900.056 1.9990092694102284e-19
22950.056 1.2605989875181932e-19
23000.056 7.834167452351732e-20
23050.056 3.3017988061650514e-20
23100.056 2.300913540087662e-18
23150.056 2.423956769348284e-18
23200.056 7.967575649205952e-20
23250.056 7.77110967721362e-19
23300.056 2.3036507431500398e-19
23350.056 5.523124527712314e-19
23400.056 5.241889042933596e-19
23450.056 1.7135037588095954e-19
23500.056 1.2971238780201904e-19
23550.056 3.0532231163435007e-19
23600.056 9.663103167943312e-19
23650.056 1.5914453019056531e-18
23700.056 1.3505468945647318e-19
23750.056 2.7675231009371873e-19
23800.056 1.6413204616615157e-18
23850.056 6.612411673211125e-19
23900.056 1.6320452868082532e-18
23950.056 7.376584885662936e-19
24000.056 2.823135645702134e-18
24050.056 3.213551496982087e-18
24100.056 6.146977928732889e-18
24150.056 1.0106755662453545e-17
24200.056 9.096683206424063e-18
24250.056 7.045660705116645e-18
24300.056 1.9216717528531805e-17
24350.056 2.844206850757318e-17
24400.056 5.22170920946552e-17
24450.056 8.655418280472842e-17
24500.056 1.0727444749204837e-16
24550.056 1.9317998620620931e-16
24600.056 3.2720250092720646e-16
24650.056 5.134433898200505e-16
24700.056 5.439263179968498e-16
24750.056 9.213940536080029e-16
24800.056 1.158551430394071e-15
24850.056 1.4562461293987604e-15
24900.056 1.656069658098044e-15
24950.056 2.3404117015701635e-15
25000.056 3.3272027945718106e-15
25050.056 3.391004179315297e-15
25100.056 3.961730086554997e-15
25150.056 3.0431728511012506e-15
25200.056 5.192253190692579e-15
25250.056 3.6235129455475245e-15
25300.056 2.8847984975181353e-15
25350.056 2.7843344706912157e-15
25400.056 5.035389230730309e-15
25450.056 2.007921861001651e-15
25500.056 1.626728876523356e-15
25550.056 3.3900808369899497e-15
25600.056 1.3776298831095827e-15
25650.056 5.812509414768563e-16
25700.056 5.645613468958475e-16
25750.056 2.7673561296469956e-16
25800.056 1.2477130995355425e-15
25850.056 2.264195007034361e-16
25900.056 1.998838488554481e-16
25950.056 2.345645159493871e-16
26000.056 7.538579325363525e-16
26050.056 2.8114610832514447e-16
26100.056 6.227996903213424e-16
26150.056 4.128585170647419e-16
26200.056 5.122231644582917e-16
26250.056 1.6067044143167852e-15
26300.056 6.895130101521117e-16
26350.056 2.5763312126639324e-15
26400.056 6.015837484158814e-15
26450.056 4.159426384921388e-15
26500.056 8.336780349289806e-15
26550.056 2.1043866655603777e-15
26600.056 1.9007479944654536e-15
26650.056 6.982398291079523e-16
26700.056 8.340885411121616e-16
26750.056 1.1350225357418205e-15
26800.056 2.688742165215042e-15
26850.056 2.261735305188633e-15
26900.056 5.232728821599762e-15
26950.056 1.7616754623614171e-15
27000.056 5.6047712472410855e-15
27050.056 9.945991101289535e-15
27100.056 1.5279786876711941e-15
27150.056 8.127285492939758e-15
27200.056 1.8019782575931886e-15
27250.056 3.6754567220360285e-15
27300.056 2.0755590396700024e-14
27350.056 8.678879605838098e-15
27400.056 1.8287505930438213e-15
27450.056 1.255415642830149e-14
27500.056 1.4525740856558284e-14
27550.056 5.2271221327184755e-15
27600.056 1.1802333162560466e-14
27650.056 5.0371589171904815e-15
27700.056 6.331916972209439e-15
27750.056 1.8545245063791368e-14
27800.056 9.630515519790394e-15
27850.056 1.6386409050358958e-14
27900.056 2.128120114427524e-14
27950.056 2.4378125633697966e-14
28000.056 3.6737190108019056e-14
28050.056 5.473645193241013e-15
28100.056 3.649831625527455e-14
28150.056 3.074231579762558e-14
28200.056 7.465657704120053e-15
28250.056 3.809958301067211e-14
28300.056 2.886459021198647e-14
28350.056 5.4285890180402505e-15
28400.056 2.629432828110378e-14
28450.056 1.73601143348184e-14
28500.056 8.368560360817819e-15
28550.056 7.432659173223386e-15
28600.056 3.44986730110047e-14
28650.056 7.1765801596947e-15
28700.056 2.584884910160241e-14
28750.056 3.46218395478109e-14
28800.056 4.695324157604598e-15
28850.056 1.0493441111225777e-13
28900.056 1.2550704893569182e-14
28950.056 1.765206528795354e-14
29000.056 9.599555641835227e-15
29050.056 2.3405302105799196e-14
29100.056 2.4210129922212695e-15
29150.056 1.3713299962904143e-15
29200.056 8.995424965491845e-14
29250.056 1.9621891683552436e-14
29300.056 5.559545260855111e-15
29350.056 3.718983794388299e-14
29400.056 4.257906129153153e-14
29450.056 4.005267781801578e-15
29500.056 6.773891816615935e-14
29550.056 2.0746071877938555e-14
29600.056 5.97937850787556e-15
29650.056 6.241735954443534e-14
29700.056 1.3892421611630098e-14
29750.056 9.428949632894687e-14
29800.056 1.439822240479739e-14
29850.056 9.118023747720768e-14
29900.056 2.543859475059019e-14
29950.056 2.4860966183068316e-14
30000.056 6.315329900191214e-17
30050.056 1.290842567168809e-14
30100.056 4.423648387721464e-14
30150.056 7.825712513339317e-14
30200.056 1.1890074485790597e-13
30250.056 7.983509058405442e-14
30300.056 1.2921174549414469e-13
30350.056 2.6966590337700034e-14
30400.056 2.302734735158814e-13
30450.056 3.8273440832555473e-13
30500.056 1.9399343709054977e-14
30550.056 3.4104166462226593e-14
30600.056 2.9207283483835664e-12
30650.056 7.543428160109486e-13
30700.056 3.374837244783962e-14
30750.056 3.316614577354876e-13
30800.056 1.3373334082791357e-12
30850.056 8.982773256233792e-13
30900.056 3.192381755864805e-13
30950.056 1.7657068599226284e-13
31000.056 2.466769449694991e-13
31050.056 3.617355752816835e-14
31100.056 2.5684281296561472e-14
31150.056 2.3082234183664906e-13
31200.056 1.3074191021480554e-12
31250.056 8.47236131524406e-13
31300.056 8.250375623610734e-14
31350.056 1.3922497897569752e-12
31400.056 6.898183413684586e-13
31450.056 6.195112902711643e-13
31500.056 1.484236550979481e-13
31550.056 4.315988899556752e-13
31600.056 4.156039672038365e-13
31650.056 2.315089460755723e-13
31700.056 1.4935416672688045e-13
31750.056 6.730565733809764e-14
31800.056 1.0243474300030005e-13
31850.056 8.21437321757306e-15
31900.056 2.8217383717013612e-14
31950.056 1.0715012568738587e-14
32000.056 6.60400511241233e-15
32050.056 4.213459044145958e-15
32100.056 3.668983023437856e-15
32150.056 1.4885058296771186e-15
32200.056 3.691831508285424e-16
32250.056 9.739174137135563e-16
32300.056 7.845148960058379e-17
32350.056 2.7639275267501834e-16
32400.056 7.390613559335175e-18
32450.056 1.3015189446632358e-16
32500.056 4.894423978773154e-18
32550.056 6.330847743231423e-17
32600.056 1.6569468024787648e-18
32650.056 9.493985944784239e-17
32700.056 2.5959186010770702e-18
32750.056 4.524360278544951e-16
32800.056 7.267349511486248e-17
32850.056 3.695439285050476e-15
32900.056 1.3676617192328721e-15
32950.056 4.448785949128834e-15
33000.056 8.59418317867406e-16
33050.056 1.4691181851360471e-16
33100.056 1.494921717439198e-17
33150.056 3.3679530428402506e-20
33200.056 9.406585894026507e-18
33250.056 1.9775741186171576e-17
33300.056 1.4540432216413058e-15
33350.056 3.4465806309475075e-16
33400.056 5.1506579605201105e-15
33450.056 6.906300333187368e-17
33500.056 2.1973749368912778e-15
33550.056 1.6012223478071693e-16
33600.056 1.0262351226022212e-15
33650.056 1.636199417664274e-15
33700.056 6.895695886981915e-17
33750.056 1.927886722400698e-15
33800.056 2.565078140405531e-17
33850.056 8.510870546544664e-16
33900.056 1.0699863932593493e-15
33950.056 1.7704074374696602e-15
34000.056 7.258540895431427e-15
34050.056 9.476799951453644e-16
34100.056 1.1126103692417434e-14
34150.056 3.234652861049233e-15
34200.056 2.5724249922378212e-14
34250.056 4.345212800819752e-15
34300.056 1.0425958282269497e-14
34350.056 1.505953365884441e-13
34400.056 7.669628381930508e-15
34450.056 6.492861834030064e-14
34500.056 9.069687192014437e-15
