# %ECSV 1.0
# ---
# datatype:
# - {name: wav, unit: Angstrom, datatype: float64}
# - {name: flux_nu, unit: erg / (cm2 Hz s), datatype: float64}
# meta: {C/O: '1.00', Kzz: '1.0000E+05', Teff: '250.', Y: '0.28', '[Fe/H]': '-0.50', f_hole: '1.00', f_rain: '0.00', grav: '100.'}
# schema: astropy-2.0
wav flux_nu
4000.0559999999996 nan
4050.0559999999996 2.900688791500043e-20
4100.056 4.977497573400065e-19
4150.056 2.1663638531000176e-18
4200.056 3.0179885037700185e-18
4250.056 1.4103395119300106e-17
4300.056 3.148948337900015e-17
4350.056 5.935823019200024e-17
4400.056 9.985189901900031e-17
4450.056 1.6053725813000048e-16
4500.056 2.71295381670001e-16
4550.056 4.0877742563000096e-16
4600.056 4.851924168200008e-16
4650.056 5.301813164999998e-16
4700.056 4.695203113899994e-16
4750.056 3.6575528524999925e-16
4800.056 2.8358594409999917e-16
4850.056 1.7272082993999902e-16
4900.056 1.1541483075799968e-16
4950.056 8.706335394199981e-17
5000.056 6.376760394699979e-17
5050.056 5.05533569420001e-17
5100.056 5.833735597800028e-17
5150.056 6.97760581570001e-17
5200.056 8.266090821600016e-17
5250.056 9.768734049900018e-17
5300.056 1.1554663404000025e-16
5350.056 1.3721519997000028e-16
5400.056 1.6052390691000036e-16
5450.056 1.8914447865000067e-16
5500.056 2.2349277345000034e-16
5550.056 2.614279694700004e-16
5600.056 2.9924926556000044e-16
5650.056 3.329610166300002e-16
5700.056 3.4318780677000055e-16
5750.056 3.5108509368000013e-16
5800.056 3.2670027908999936e-16
5850.056 2.170457998389969e-16
5900.056 5.332117779670284e-17
5950.056 4.1871187835001075e-16
6000.056 1.0115104983200058e-15
6050.056 1.9810417919000157e-15
6100.056 3.345769762400024e-15
6150.056 5.151446237700029e-15
6200.056 7.523262983200037e-15
6250.056 1.037445935930003e-14
6300.056 1.439781181500004e-14
6350.056 1.9760332810000048e-14
6400.056 2.66366735060001e-14
6450.056 3.036763299199979e-14
6500.056 3.8535819581000526e-14
6550.056 5.289021661999928e-14
6600.056 7.299364740500108e-14
6650.056 1.0546951078900066e-13
6700.056 1.4428278816000078e-13
6750.056 1.9682450708000096e-13
6800.056 2.391245152200007e-13
6850.056 2.5785680324000006e-13
6900.056 2.1038149658399826e-13
6950.056 1.4298289268200208e-13
7000.056 1.7695908256099568e-13
7050.056 1.8419168667200095e-13
7100.056 2.1850632751999912e-13
7150.056 1.5118271028085483e-13
7200.056 8.349853775677559e-14
7250.056 9.83861800366246e-14
7300.056 1.0875050919592743e-13
7350.056 1.8703540150760056e-13
7400.056 2.89046595551004e-13
7450.056 4.4293197794000744e-13
7500.056 5.763973722800019e-13
7550.056 6.755740569200015e-13
7600.056 7.329854683600003e-13
7650.056 3.949524923179905e-13
7700.056 3.804435733590099e-13
7750.056 9.156536384400079e-13
7800.056 1.0568214571500048e-12
7850.056 1.3194967805099897e-12
7900.056 1.479407596459996e-12
7950.056 1.6207562794200001e-12
8000.056 1.9395276255000062e-12
8050.056 2.169389926500013e-12
8100.056 1.2713587155609498e-12
8150.056 4.627133734784072e-13
8200.056 1.4441561246708388e-12
8250.056 1.5008368425406913e-12
8300.056 1.3957905946442826e-12
8350.056 1.6645455502850127e-12
8400.056 2.4411347051900846e-12
8450.056 4.14271770650003e-12
8500.056 5.431691193800026e-12
8550.056 6.899304091900081e-12
8600.056 8.414312045000053e-12
8650.056 9.276147790200017e-12
8700.056 8.589106943799996e-12
8750.056 8.375991534100001e-12
8800.056 7.1260984915998965e-12
8850.056 4.770707092399758e-12
8900.056 3.6879339644625127e-13
8950.056 7.006563347374139e-14
9000.056 7.649168822383077e-14
9050.056 6.426661682159346e-13
9100.056 7.337619051466089e-13
9150.056 1.1777343433540478e-12
9200.056 3.0265217541202534e-12
9250.056 1.988109853181852e-12
9300.056 3.0906086668022582e-15
9350.056 2.3620138809763534e-15
9400.056 9.407135365751376e-14
9450.056 2.5550002625140503e-14
9500.056 2.6285925371472883e-14
9550.056 1.9632831968720345e-14
9600.056 5.170230124842956e-14
9650.056 1.8895144351839596e-13
9700.056 1.7146693074420551e-12
9750.056 1.1016145659917586e-12
9800.056 1.5365338359447554e-12
9850.056 2.2234467497989643e-12
9900.056 3.780594273100293e-12
9950.056 4.098832211470213e-12
10000.056 3.2065156301938213e-12
10050.056 1.900015464259894e-12
10100.056 1.215376834859995e-12
10150.056 5.715840166199789e-13
10200.056 1.2285610771620353e-13
10250.056 1.1139675741128958e-13
10300.056 2.424080811166835e-13
10350.056 7.964908240840412e-14
10400.056 2.424414579380151e-13
10450.056 3.4780577315596556e-13
10500.056 4.752075096700086e-13
10550.056 6.323775883100001e-13
10600.056 6.320711791400053e-13
10650.056 5.179797053499929e-13
10700.056 3.5657962408999507e-13
10750.056 2.684001873179926e-13
10800.056 2.1204706760800276e-13
10850.056 1.659646094109984e-13
10900.056 1.3149011185099723e-13
10950.056 8.530226109899998e-14
11000.056 4.992769602149577e-14
11050.056 2.271546235376903e-14
11100.056 7.464516042509456e-15
11150.056 1.6235668245204361e-15
11200.056 6.150805944461155e-16
11250.056 4.000882202326205e-16
11300.056 1.4564617305933684e-15
11350.056 3.0965033782666503e-16
11400.056 3.6386831289408876e-15
11450.056 1.5588091574978191e-15
11500.056 1.9182547972424234e-15
11550.056 5.480227438970346e-16
11600.056 1.1091276752104276e-16
11650.056 1.072347926627917e-15
11700.056 2.006873888554565e-15
11750.056 9.958367417407478e-16
11800.056 4.3143637150488994e-15
11850.056 3.883711539435369e-15
11900.056 5.005410743784144e-15
11950.056 7.423805444530406e-15
12000.056 8.455492715513082e-15
12050.056 1.189165410139031e-14
12100.056 1.321733799704196e-14
12150.056 1.9269227395353518e-14
12200.056 2.3779165927180214e-14
12250.056 5.1209963249356254e-14
12300.056 9.881246662253647e-14
12350.056 1.261635303940037e-13
12400.056 2.322631658040023e-13
12450.056 4.549262745600119e-13
12500.056 6.449752417599952e-13
12550.056 7.427800797700119e-13
12600.056 1.231911959680068e-12
12650.056 2.2306166900400493e-12
12700.056 2.921628623709979e-12
12750.056 2.4920674636100595e-12
12800.056 1.9570978297199283e-12
12850.056 1.099260868239951e-12
12900.056 6.58486071033138e-13
12950.056 5.439457354794091e-13
13000.056 6.189744812910849e-13
13050.056 3.8036114165229265e-13
13100.056 4.597918099991105e-13
13150.056 1.980892715991713e-13
13200.056 2.714192752705493e-13
13250.056 3.7528355423214876e-13
13300.056 1.0511818330946549e-13
13350.056 7.076948989086883e-14
13400.056 1.7758937127054064e-14
13450.056 1.6544423712942485e-15
13500.056 1.4827360678824037e-16
13550.056 6.862597146973461e-18
13600.056 3.861019544753041e-19
13650.056 4.653380557773985e-18
13700.056 1.4518914276072524e-18
13750.056 2.8163826186103184e-17
13800.056 3.300272067391843e-17
13850.056 4.768877205461603e-18
13900.056 2.885773965905074e-17
13950.056 1.4418234922514325e-17
14000.056 7.555979390886054e-17
14050.056 7.033902805302134e-17
14100.056 7.795019765563732e-17
14150.056 6.213523836326801e-16
14200.056 4.841344536515055e-16
14250.056 1.065265511008707e-15
14300.056 5.446237459508964e-15
14350.056 3.445928394213617e-15
14400.056 3.1800257779872483e-15
14450.056 9.979162854672969e-15
14500.056 3.0188001675596896e-14
14550.056 6.496045510088136e-14
14600.056 1.1028521238721232e-13
14650.056 2.0251175596340747e-14
14700.056 6.549205008852641e-15
14750.056 1.5594601996926088e-15
14800.056 1.6027135994425429e-15
14850.056 1.464014306939517e-15
14900.056 1.0729546181303472e-15
14950.056 4.0723426854003336e-16
15000.056 2.635978135963363e-15
15050.056 7.197689249089463e-15
15100.056 1.2096381164010653e-15
15150.056 1.975749302400303e-16
15200.056 3.550471254432815e-15
15250.056 8.410113806975472e-15
15300.056 1.7452791440618934e-14
15350.056 2.819476435496793e-14
15400.056 2.7786563666250635e-14
15450.056 5.807671757578244e-14
15500.056 1.035928433735351e-13
15550.056 4.055108032120321e-13
15600.056 1.0213398415928837e-12
15650.056 2.5008501726803447e-12
15700.056 5.281842933860268e-12
15750.056 7.120611244600082e-12
15800.056 8.936494808400038e-12
15850.056 1.1550265812200806e-11
15900.056 1.2684012207399737e-11
15950.056 1.555184825150007e-11
16000.056 1.4460968387899858e-11
16050.056 1.087801234269966e-11
16100.056 6.321462035000135e-12
16150.056 3.0663855146396954e-12
16200.056 9.098761781970482e-13
16250.056 2.9974969994899373e-13
16300.056 9.88346430040301e-14
16350.056 9.076320289681889e-14
16400.056 9.724573367157047e-14
16450.056 1.210219719776997e-13
16500.056 6.973312168425725e-14
16550.056 8.391522232553256e-14
16600.056 3.8863295769070126e-13
16650.056 1.523491859409381e-13
16700.056 2.6988614839265407e-14
16750.056 9.07478712891286e-14
16800.056 1.5807244103197988e-13
16850.056 1.5484325456424583e-13
16900.056 3.815350404144673e-14
16950.056 2.4850101529718325e-14
17000.056 7.821925094158416e-15
17050.056 1.4121897123262582e-14
17100.056 4.9506628436324366e-14
17150.056 2.5206539921463604e-14
17200.056 1.2328063675395137e-13
17250.056 1.590989513227836e-14
17300.056 1.4562579508146733e-14
17350.056 3.143884066740792e-14
17400.056 8.059259462278244e-14
17450.056 1.0399283747122768e-13
17500.056 1.8960469044573963e-13
17550.056 1.6593582969487376e-13
17600.056 1.6246491483982734e-13
17650.056 7.752197472026703e-14
17700.056 6.672450514259726e-14
17750.056 4.753008870602626e-14
17800.056 1.1396426757760292e-13
17850.056 4.1641516990684725e-14
17900.056 2.3856581695325203e-14
17950.056 1.7673065321258523e-14
18000.056 2.963630566775652e-14
18050.056 1.3927017229850714e-14
18100.056 1.392183359140215e-14
18150.056 5.291633361537357e-15
18200.056 4.088816850846055e-15
18250.056 1.9836563370651176e-14
18300.056 1.058648324941423e-15
18350.056 9.367465831133677e-16
18400.056 2.712370276020048e-16
18450.056 5.050965475260833e-15
18500.056 3.529530882566682e-15
18550.056 1.1351436689208756e-15
18600.056 4.144464295837421e-15
18650.056 3.678033621543975e-15
18700.056 9.91273496510363e-17
18750.056 1.8451266059180937e-16
18800.056 9.341470231263154e-15
18850.056 6.3665009843219806e-15
18900.056 1.0557727346729608e-14
18950.056 9.925132564299384e-15
19000.056 1.0681558981202095e-15
19050.056 4.956492248522664e-16
19100.056 2.563629536709575e-15
19150.056 1.0299298402583158e-15
19200.056 2.8495956061798713e-15
19250.056 2.1080751274697947e-15
19300.056 9.635843899231117e-16
19350.056 1.2198302205928235e-15
19400.056 7.205516738519153e-16
19450.056 5.736802069158967e-16
19500.056 5.599870541016719e-16
19550.056 1.6220892374149314e-15
19600.056 3.0530786540440506e-15
19650.056 2.101347553567843e-15
19700.056 3.4724914688379482e-15
19750.056 3.779328858377473e-15
19800.056 2.3249924309272053e-15
19850.056 2.8434750704768612e-15
19900.056 5.025253320270894e-15
19950.056 4.634818322113251e-15
20000.056 4.939828960105925e-15
20050.056 3.987678378414993e-15
20100.056 5.647716196290735e-15
20150.056 3.5823585747802056e-15
20200.056 2.4554625759571677e-15
20250.056 4.791414904864541e-15
20300.056 5.432238020749787e-15
20350.056 5.340758191621517e-15
20400.056 5.392786768746051e-15
20450.056 6.59652525458112e-15
20500.056 6.173306758050332e-15
20550.056 5.826090266059615e-15
20600.056 5.379527488210666e-15
20650.056 4.950810663029449e-15
20700.056 4.508755745599848e-15
20750.056 3.9224595322999306e-15
20800.056 3.359762796799839e-15
20850.056 3.0092899992999664e-15
20900.056 2.6245771598999786e-15
20950.056 2.292946591399982e-15
21000.056 2.0579743007999766e-15
21050.056 1.9635664123999866e-15
21100.056 1.9250376710999946e-15
21150.056 2.017688620600024e-15
21200.056 2.191888770600052e-15
21250.056 2.496144430900003e-15
21300.056 2.826444482700057e-15
21350.056 3.2322560192399595e-15
21400.056 3.9414757860003035e-15
21450.056 4.090558753590241e-15
21500.056 4.314259796244445e-15
21550.056 4.711930730348986e-15
21600.056 4.756125939760064e-15
21650.056 4.603877789993976e-15
21700.056 4.49184198214924e-15
21750.056 4.821843237254083e-15
21800.056 4.1386946856279106e-15
21850.056 4.0514564581469906e-15
21900.056 3.455927220346927e-15
21950.056 1.8914451861721227e-15
22000.056 1.67918195565435e-16
22050.056 3.4823972555012676e-16
22100.056 1.0694332368925271e-15
22150.056 6.323665407111696e-16
22200.056 5.581506316369017e-16
22250.056 4.370981679385133e-16
22300.056 1.6104054587558983e-16
22350.056 3.0316967825833077e-16
22400.056 1.258828138795149e-16
22450.056 2.2392860553301515e-16
22500.056 1.681283085749592e-16
22550.056 5.708194680498003e-17
22600.056 3.853913240864009e-17
22650.056 4.620453590687366e-17
22700.056 7.177357893458243e-17
22750.056 1.4589852062898257e-16
22800.056 2.1553114427170526e-16
22850.056 1.2083795520675687e-16
22900.056 7.129722615669914e-17
22950.056 4.618405152956192e-17
23000.056 4.180538122569697e-17
23050.056 2.724427713423763e-17
23100.056 6.856988542351257e-16
23150.056 6.586327176546265e-16
23200.056 2.392774288443387e-17
23250.056 1.93894456104456e-16
23300.056 9.50027112570316e-17
23350.056 1.546050650691469e-16
23400.056 1.3341731140662959e-16
23450.056 5.080904403380122e-17
23500.056 4.7054112123149233e-17
23550.056 1.2247557863647703e-16
23600.056 3.570671217466557e-16
23650.056 5.011658183552832e-16
23700.056 5.083987271664784e-17
23750.056 9.071198468817239e-17
23800.056 5.483520542697777e-16
23850.056 2.5371527361938167e-16
23900.056 5.70938355428251e-16
23950.056 2.3940852563465516e-16
24000.056 8.146576163073177e-16
24050.056 9.008496646042937e-16
24100.056 1.4804256710673553e-15
24150.056 2.2275095445806505e-15
24200.056 1.7900647431930937e-15
24250.056 1.3568684584188663e-15
24300.056 3.4121602890817696e-15
24350.056 3.699831337501559e-15
24400.056 7.614613039193443e-15
24450.056 1.0098297674164628e-14
24500.056 1.0300813662961252e-14
24550.056 1.8993993687215604e-14
24600.056 2.8379882056719532e-14
24650.056 3.988042268344511e-14
24700.056 3.792694424816288e-14
24750.056 5.887216703748535e-14
24800.056 6.305502676693323e-14
24850.056 7.902780355095415e-14
24900.056 7.041511905979961e-14
24950.056 9.723095391266004e-14
25000.056 1.4578704005775795e-13
25050.056 1.0984848634520675e-13
25100.056 1.4368461271566186e-13
25150.056 8.167816705042369e-14
25200.056 1.4764035508087206e-13
25250.056 7.504597894665532e-14
25300.056 5.911892997389432e-14
25350.056 4.3179193996348526e-14
25400.056 9.119605901528645e-14
25450.056 2.2708566755551498e-14
25500.056 1.797590662722751e-14
25550.056 5.54617396526105e-14
25600.056 2.000531458333826e-14
25650.056 6.849054975995518e-15
25700.056 4.315851835223439e-15
25750.056 1.7110086795440023e-15
25800.056 8.19602838061208e-15
25850.056 1.2849697791974237e-15
25900.056 1.4585999036752892e-15
25950.056 6.932089977769301e-16
26000.056 4.5643937287152494e-15
26050.056 8.626636123563362e-16
26100.056 2.5887443552225475e-15
26150.056 1.2560372444309908e-15
26200.056 1.5892720398592216e-15
26250.056 8.411780115305267e-15
26300.056 1.985463502776344e-15
26350.056 2.5427535240856745e-14
26400.056 6.971528423952243e-14
26450.056 2.7670162688906438e-14
26500.056 9.372688441656859e-14
26550.056 7.660732636958655e-15
26600.056 6.059259720797041e-15
26650.056 1.5049684215055037e-15
26700.056 1.6640594782077127e-15
26750.056 2.4363175871645047e-15
26800.056 8.235978918582377e-15
26850.056 5.740131399739075e-15
26900.056 2.0748635384474725e-14
26950.056 4.8362567900049115e-15
27000.056 2.3355147082462774e-14
27050.056 5.1536020994907806e-14
27100.056 3.1983314943407665e-15
27150.056 3.547613944444771e-14
27200.056 3.80909077797914e-15
27250.056 1.1118432168287218e-14
27300.056 1.3638623567717238e-13
27350.056 3.4404856175016813e-14
27400.056 3.5301603265767094e-15
27450.056 5.621556135258823e-14
27500.056 7.519341330036608e-14
27550.056 1.3732281198222786e-14
27600.056 4.2114518357552194e-14
27650.056 1.2192274373546758e-14
27700.056 1.6488225673837783e-14
27750.056 8.666473653906817e-14
27800.056 2.980255301234116e-14
27850.056 7.171890001000896e-14
27900.056 1.1176808196397249e-13
27950.056 1.576976084342069e-13
28000.056 2.578322550984643e-13
28050.056 1.821482463595498e-14
28100.056 3.150901677483664e-13
28150.056 2.262363560883649e-13
28200.056 3.3722071684676784e-14
28250.056 4.151780368385948e-13
28300.056 3.886262006414111e-13
28350.056 3.877215475336569e-14
28400.056 2.322409287610166e-13
28450.056 3.9104505375349046e-13
28500.056 1.3334131578190746e-13
28550.056 4.0212410508742685e-14
28600.056 4.558314985773348e-13
28650.056 1.212625532282411e-13
28700.056 4.0503132093279e-13
28750.056 6.691873854040115e-13
28800.056 1.045282800798242e-13
28850.056 1.3014358809500982e-12
28900.056 2.997422755886861e-13
28950.056 4.052987904831937e-13
29000.056 1.911703713657668e-13
29050.056 4.408454070176865e-13
29100.056 1.1600821274406511e-13
29150.056 8.541781358559079e-14
29200.056 1.6639230519998022e-12
29250.056 5.141131798167624e-13
29300.056 2.9120413605485047e-13
29350.056 1.003623924099056e-12
29400.056 7.756404347590542e-13
29450.056 1.0203915837537034e-13
29500.056 1.5789870100111367e-12
29550.056 3.2720715299169604e-13
29600.056 2.2606272929374944e-13
29650.056 2.0914291305723697e-12
29700.056 1.973911443680507e-13
29750.056 1.6224689669562886e-12
29800.056 4.374368112366807e-13
29850.056 2.110122248994977e-12
29900.056 5.858587990624924e-13
29950.056 6.839861951554578e-13
30000.056 3.0879463207554533e-15
30050.056 1.5244997008571148e-13
30100.056 7.339794498498089e-13
30150.056 2.2902430244647046e-12
30200.056 1.5780837301297341e-12
30250.056 1.7571890532095023e-12
30300.056 3.04559581024797e-12
30350.056 3.070531960948469e-13
30400.056 3.8628048046503145e-12
30450.056 4.918334112884267e-12
30500.056 4.718385774691032e-13
30550.056 6.375764237233105e-13
30600.056 3.4550041439006184e-11
30650.056 9.581964095960357e-12
30700.056 1.3300150178174073e-12
30750.056 5.9626186649663145e-12
30800.056 1.4338923750505695e-11
30850.056 1.0741426756762526e-11
30900.056 4.745752811061146e-12
30950.056 2.2097804144093212e-12
31000.056 3.64039014094512e-12
31050.056 8.629345445876865e-13
31100.056 7.175633900532321e-13
31150.056 2.762321915409491e-12
31200.056 1.7095205701556482e-11
31250.056 7.44392152383282e-12
31300.056 1.5628935153224998e-12
31350.056 1.5917125769036523e-11
31400.056 8.11231871391163e-12
31450.056 7.8679645123625e-12
31500.056 1.8654558047595435e-12
31550.056 4.852882401517296e-12
31600.056 4.3230142935316175e-12
31650.056 2.9049150850705024e-12
31700.056 1.7709863856746794e-12
31750.056 8.373474943162796e-13
31800.056 1.459509008338155e-12
31850.056 1.4954079996365317e-13
31900.056 4.56607490063186e-13
31950.056 2.1104399309997247e-13
32000.056 9.628660588952354e-14
32050.056 1.1214790713485903e-13
32100.056 1.0396982396985971e-13
32150.056 5.94037261181548e-14
32200.056 1.89972882980222e-14
32250.056 4.7856805946167165e-14
32300.056 7.46377069961185e-15
32350.056 2.88545926268629e-14
32400.056 1.1630854957882053e-15
32450.056 1.5654195878308913e-14
32500.056 9.434861764798419e-16
32550.056 1.2211547394078755e-14
32600.056 4.350053745178149e-16
32650.056 2.511219901754832e-14
32700.056 8.669615884993787e-16
32750.056 9.863858963852815e-14
32800.056 2.3802565546587186e-14
32850.056 4.527440236241017e-13
32900.056 2.555253914358863e-13
32950.056 3.9598375898723636e-13
33000.056 7.54205034374809e-14
33050.056 3.0019201306781013e-14
33100.056 3.4395566902250668e-15
33150.056 5.830227515166865e-18
33200.056 6.625622792811061e-16
33250.056 1.4769670137520273e-15
33300.056 6.82627936728848e-14
33350.056 4.780409166379167e-14
33400.056 4.0179968553568377e-13
33450.056 1.8027044960268596e-14
33500.056 2.715993369381744e-13
33550.056 2.397063927750826e-14
33600.056 1.085582540534305e-13
33650.056 1.329899295532793e-13
33700.056 9.726323166958016e-15
33750.056 1.5498077017855387e-13
33800.056 3.3226816556291066e-15
33850.056 6.88781724460992e-14
33900.056 7.506723437259446e-14
33950.056 9.74690395327764e-14
34000.056 3.089014394140117e-13
34050.056 4.5828465285849546e-14
34100.056 4.1236892362667e-13
34150.056 1.104627286591576e-13
34200.056 6.735534848886668e-13
34250.056 1.6308970297615679e-13
34300.056 3.231466068561285e-13
34350.056 2.654590323057942e-12
34400.056 2.101020249562239e-13
34450.056 1.5888374890872381e-12
34500.056 3.0226056259459155e-13
34550.056 1.633586798733593e-12
