# %ECSV 1.0
# ---
# datatype:
# - {name: wav, unit: Angstrom, datatype: float64}
# - {name: flux_nu, unit: erg / (cm2 Hz s), datatype: float64}
# meta: {C/O: '1.00', Kzz: '1.0000E+05', Teff: '200.', Y: '0.28', '[Fe/H]': '-0.50', f_hole: '1.00', f_rain: '0.00', grav: '1780.'}
# schema: astropy-2.0
wav flux_nu
4000.0559999999996 nan
4050.0559999999996 3.1235810862000155e-19
4100.056 7.066192342500048e-19
4150.056 1.4889551499000057e-18
4200.056 2.4677469306000094e-18
4250.056 4.036605347600012e-18
4300.056 6.225078094900019e-18
4350.056 9.402560201700026e-18
4400.056 1.3866642082000041e-17
4450.056 2.0222295498000067e-17
4500.056 2.969471633400009e-17
4550.056 4.301260511300013e-17
4600.056 6.082847659700016e-17
4650.056 8.445417373000023e-17
4700.056 1.1464092103500028e-16
4750.056 1.5518954139000042e-16
4800.056 2.1335560595000064e-16
4850.056 2.901635493400008e-16
4900.056 3.8384253832000107e-16
4950.056 4.853899122600009e-16
5000.056 5.342956208000002e-16
5050.056 5.217714190700002e-16
5100.056 6.255009216100011e-16
5150.056 7.945673961100022e-16
5200.056 9.582509932000018e-16
5250.056 1.093770233300002e-15
5300.056 1.2338228420000019e-15
5350.056 1.3705070839000013e-15
5400.056 1.4722974365000022e-15
5450.056 1.6514044953000036e-15
5500.056 1.8770004972000035e-15
5550.056 2.1008221198000026e-15
5600.056 2.292961602000003e-15
5650.056 2.4570359455000015e-15
5700.056 2.5012911083000015e-15
5750.056 2.5594412117999998e-15
5800.056 2.4721585200999978e-15
5850.056 1.9782605186999827e-15
5900.056 6.929092679490164e-16
5950.056 3.387994725500036e-15
6000.056 6.5591996264000576e-15
6050.056 1.1840128209700083e-14
6100.056 1.9568472863000135e-14
6150.056 3.007249945400017e-14
6200.056 4.371513266100021e-14
6250.056 5.990148803000022e-14
6300.056 8.414280437300044e-14
6350.056 1.1710557961700051e-13
6400.056 1.573761286400007e-13
6450.056 1.8790957977999995e-13
6500.056 2.3724891132000146e-13
6550.056 3.1302920942000095e-13
6600.056 4.2045895601000136e-13
6650.056 5.71770825760003e-13
6700.056 7.560321947700016e-13
6750.056 9.125741279800025e-13
6800.056 1.068211897600002e-12
6850.056 1.1053321022999992e-12
6900.056 8.898400172899906e-13
6950.056 6.484190983400048e-13
7000.056 7.450711776499945e-13
7050.056 7.779007824400036e-13
7100.056 8.431860364399971e-13
7150.056 5.196659232599864e-13
7200.056 2.878100237420078e-13
7250.056 3.4658316706998995e-13
7300.056 3.6052835739999985e-13
7350.056 5.834552341500057e-13
7400.056 8.57288100360001e-13
7450.056 1.1820284118300033e-12
7500.056 1.4217039847000029e-12
7550.056 1.5210879678999988e-12
7600.056 1.4952046741999968e-12
7650.056 8.968845181299872e-13
7700.056 8.304787821600078e-13
7750.056 1.4536865783000123e-12
7800.056 2.0114292113000134e-12
7850.056 2.291132436399996e-12
7900.056 2.590947332800023e-12
7950.056 3.0445253407000014e-12
8000.056 3.4141973725000136e-12
8050.056 3.915514728000006e-12
8100.056 2.7661179757999563e-12
8150.056 1.262255608960039e-12
8200.056 2.8145060076999852e-12
8250.056 3.2544144533801587e-12
8300.056 4.031793212100015e-12
8350.056 4.935747958500051e-12
8400.056 7.508193872600162e-12
8450.056 1.1130472626000225e-11
8500.056 1.4434802915000099e-11
8550.056 1.8362413483000236e-11
8600.056 2.318742687300021e-11
8650.056 2.7137036657000087e-11
8700.056 2.7871422431999983e-11
8750.056 2.7792283679999957e-11
8800.056 2.4243712416999795e-11
8850.056 1.4881039516399334e-11
8900.056 1.8846706551697603e-12
8950.056 3.3921295417000787e-13
9000.056 2.3655122311732606e-13
9050.056 2.560593767180027e-12
9100.056 2.61609322760013e-12
9150.056 3.050398561300006e-12
9200.056 4.987594176500167e-12
9250.056 2.159211752322754e-12
9300.056 7.214593190795643e-15
9350.056 2.962254178325045e-16
9400.056 5.3021983981490704e-14
9450.056 2.483907125238768e-15
9500.056 5.817362871519777e-15
9550.056 7.769021656290867e-15
9600.056 2.7394318959400452e-14
9650.056 1.9405076980803237e-13
9700.056 1.6638358797400476e-12
9750.056 2.4227129131000755e-12
9800.056 4.0868890673000185e-12
9850.056 7.162299538400182e-12
9900.056 1.1864888119300233e-11
9950.056 1.3580694367000114e-11
10000.056 8.008356663771672e-12
10050.056 2.939067248699582e-13
10100.056 1.0757874377399808e-13
10150.056 5.971918147899764e-14
10200.056 2.4637336235999105e-14
10250.056 1.5075982818999896e-14
10300.056 1.5784816785799633e-14
10350.056 8.07867193560003e-15
10400.056 9.658715581599995e-15
10450.056 8.390183883599872e-15
10500.056 6.763470645699925e-15
10550.056 5.2070188553999156e-15
10600.056 3.5556597905999326e-15
10650.056 2.2454214818999477e-15
10700.056 1.3330626177899643e-15
10750.056 8.066555750199808e-16
10800.056 5.395666137199926e-16
10850.056 3.871189254499933e-16
10900.056 2.7480629143999394e-16
10950.056 1.7574657389999657e-16
11000.056 1.071206449789972e-16
11050.056 6.090921749899837e-17
11100.056 2.5062896366698502e-17
11150.056 5.7497692958292664e-18
11200.056 1.0900080306519854e-18
11250.056 7.891534592106113e-19
11300.056 2.510602010724064e-18
11350.056 1.327095377528372e-18
11400.056 5.899506202050245e-18
11450.056 3.2968880680515303e-18
11500.056 3.3761296066800075e-18
11550.056 3.0696451290961694e-18
11600.056 2.2220002510899443e-18
11650.056 5.6609300705004564e-18
11700.056 1.3785390188299048e-17
11750.056 1.6513383674001544e-17
11800.056 3.381239600499988e-17
11850.056 3.696943483000021e-17
11900.056 4.6173323823000177e-17
11950.056 4.816088871799976e-17
12000.056 4.429702534300017e-17
12050.056 5.863813874000137e-17
12100.056 8.639556962000265e-17
12150.056 1.4482626067000356e-16
12200.056 2.2492018195000374e-16
12250.056 3.3871913519000787e-16
12300.056 4.298379024500026e-16
12350.056 5.071343062400093e-16
12400.056 7.922064845600241e-16
12450.056 1.4869962475000562e-15
12500.056 2.7542870361000675e-15
12550.056 4.696013576700164e-15
12600.056 9.031776944400317e-15
12650.056 1.680010948400056e-14
12700.056 2.6083030982000398e-14
12750.056 3.202018918200034e-14
12800.056 3.586911314700002e-14
12850.056 3.270996831999963e-14
12900.056 2.744666743099986e-14
12950.056 2.822769041800012e-14
13000.056 3.469039355800077e-14
13050.056 3.3786147197999985e-14
13100.056 5.0329757415000226e-14
13150.056 4.219869773900062e-14
13200.056 4.176403067599943e-14
13250.056 5.540312881119981e-14
13300.056 1.9753680717486422e-14
13350.056 1.592616901499992e-14
13400.056 3.7913584170096914e-15
13450.056 2.3663205763763294e-16
13500.056 4.2250000557806414e-18
13550.056 7.337474951427154e-20
13600.056 7.849556355629743e-21
13650.056 2.5450110972204792e-20
13700.056 8.363727752669283e-21
13750.056 3.52349704785892e-19
13800.056 2.4518493470093536e-19
13850.056 7.732514919485633e-20
13900.056 5.71366093232847e-19
13950.056 1.979637691005458e-19
14000.056 1.4664885781814186e-18
14050.056 2.0136143575866986e-18
14100.056 4.183138242802409e-18
14150.056 3.3577077749196073e-17
14200.056 5.132997928556989e-17
14250.056 1.2347257766257772e-16
14300.056 2.1017870941449556e-16
14350.056 4.520754159392031e-16
14400.056 4.821812228968326e-16
14450.056 1.1753628457950623e-15
14500.056 5.3626746067174764e-15
14550.056 2.276353200090074e-14
14600.056 3.884741001600021e-14
14650.056 8.109824875319002e-15
14700.056 2.5575366477045776e-15
14750.056 1.7831735857799983e-15
14800.056 6.62547851443e-16
14850.056 8.514577472859914e-16
14900.056 4.0397541287298615e-16
14950.056 1.4435709603350003e-16
15000.056 5.839826347765265e-16
15050.056 1.9570635634271e-15
15100.056 5.738455032035824e-16
15150.056 1.882811409994631e-16
15200.056 1.12652487568296e-15
15250.056 2.8938578789904975e-15
15300.056 7.297409317599697e-15
15350.056 1.1157653390700798e-14
15400.056 2.060429555320045e-14
15450.056 4.1930356515003503e-14
15500.056 1.0141025793400644e-13
15550.056 2.1580140820001092e-13
15600.056 3.8729880722000835e-13
15650.056 5.927287720200157e-13
15700.056 7.471990917700089e-13
15750.056 8.026251399599997e-13
15800.056 8.10357197089999e-13
15850.056 8.179569836300022e-13
15900.056 7.813841955699981e-13
15950.056 7.770222427799959e-13
16000.056 7.022289871699938e-13
16050.056 5.997276860999907e-13
16100.056 4.651004046299932e-13
16150.056 3.3221397389998986e-13
16200.056 1.672948661499898e-13
16250.056 7.225864854399597e-14
16300.056 2.175596148179666e-14
16350.056 7.692327944201237e-15
16400.056 4.161126130161869e-15
16450.056 3.4767486633097146e-15
16500.056 3.2786481033275412e-15
16550.056 5.860497311970708e-15
16600.056 2.3906727005267e-14
16650.056 5.032693611441624e-15
16700.056 6.965622791669807e-15
16750.056 1.2977557976298395e-14
16800.056 1.2128492422188693e-14
16850.056 9.90152970349506e-15
16900.056 6.52816327159327e-15
16950.056 5.377291359569888e-15
17000.056 3.1703215695700936e-15
17050.056 2.9501931179502595e-15
17100.056 5.2152178341407474e-15
17150.056 5.848772347602992e-15
17200.056 1.1646591211959054e-14
17250.056 2.6587889796496114e-15
17300.056 3.470724735540002e-15
17350.056 5.996494147500042e-15
17400.056 8.697499204300236e-15
17450.056 1.0811157411300426e-14
17500.056 1.5356230737399726e-14
17550.056 1.4771999787299834e-14
17600.056 1.4562084654600187e-14
17650.056 8.655515763099713e-15
17700.056 7.00251875570001e-15
17750.056 4.9553990080596824e-15
17800.056 5.709818224300089e-15
17850.056 3.5180645102499086e-15
17900.056 1.964791654213759e-15
17950.056 1.6145568540200848e-15
18000.056 1.3952608310708358e-15
18050.056 7.390334007489872e-16
18100.056 4.655146090729963e-16
18150.056 1.8706502266981879e-16
18200.056 9.210254677027487e-17
18250.056 2.270360203881076e-16
18300.056 2.8238512056392643e-17
18350.056 2.872141548039872e-17
18400.056 8.52247616747009e-18
18450.056 5.996090207889887e-17
18500.056 3.775481252720147e-17
18550.056 1.663434447233781e-17
18600.056 4.9577594574929744e-17
18650.056 8.226465845768949e-17
18700.056 7.75263909990041e-18
18750.056 9.529370808919922e-18
18800.056 1.1201073616821483e-16
18850.056 7.280303245139482e-17
18900.056 9.028367593538875e-17
18950.056 1.106356543697004e-16
19000.056 2.028679850939888e-17
19050.056 1.3926049422301454e-17
19100.056 4.976511326890094e-17
19150.056 3.22893580754036e-17
19200.056 4.672406272640076e-17
19250.056 5.0256192738195e-17
19300.056 3.4684467192501354e-17
19350.056 3.846918527459939e-17
19400.056 2.390521915629725e-17
19450.056 1.2489178267069927e-17
19500.056 8.59106659923985e-18
19550.056 1.0885528766672023e-17
19600.056 1.3422118705286834e-17
19650.056 1.0291243920424018e-17
19700.056 2.0128356659913956e-17
19750.056 1.6788190354445734e-17
19800.056 9.107940273699361e-18
19850.056 1.4697046133344382e-17
19900.056 1.840315244278761e-17
19950.056 1.0057329269912736e-17
20000.056 1.1329498405900691e-17
20050.056 1.2025592326687441e-17
20100.056 1.3294979942100026e-17
20150.056 1.0144865661409546e-17
20200.056 9.651932000800919e-18
20250.056 1.3012314982400404e-17
20300.056 1.2705181089799697e-17
20350.056 1.1622445501899681e-17
20400.056 1.0502100829499926e-17
20450.056 9.16258175669998e-18
20500.056 7.653206386999876e-18
20550.056 6.206996505499825e-18
20600.056 4.9553903460999364e-18
20650.056 3.851772972599908e-18
20700.056 2.933502791099928e-18
20750.056 2.1813541236999426e-18
20800.056 1.6115800299999568e-18
20850.056 1.1948855141999713e-18
20900.056 8.954151176899786e-19
20950.056 7.002436520499866e-19
21000.056 5.804931504099925e-19
21050.056 5.128777280499961e-19
21100.056 4.977964161500014e-19
21150.056 5.462528692400069e-19
21200.056 6.609383116500133e-19
21250.056 8.631720969600214e-19
21300.056 1.1890537355400353e-18
21350.056 1.6852048396000437e-18
21400.056 2.408220845300073e-18
21450.056 3.2550020186000842e-18
21500.056 4.088977296400073e-18
21550.056 4.896913232200056e-18
21600.056 5.241851770779987e-18
21650.056 5.833611744359812e-18
21700.056 6.2277355697296895e-18
21750.056 6.1277041507155026e-18
21800.056 5.544770645945058e-18
21850.056 5.8027676359491955e-18
21900.056 5.303999832048051e-18
21950.056 3.936692557864135e-18
22000.056 7.178290358584227e-19
22050.056 1.0515726558001062e-18
22100.056 1.4573287366269859e-18
22150.056 8.213093213836754e-19
22200.056 8.171654850269793e-19
22250.056 5.589560244257735e-19
22300.056 2.5174402972003298e-19
22350.056 6.855532979740496e-19
22400.056 6.00826489418206e-19
22450.056 6.740350961763932e-19
22500.056 7.421734310380154e-19
22550.056 2.976395551901486e-19
22600.056 2.592002928834225e-19
22650.056 1.368139065027262e-19
22700.056 2.076238855834247e-19
22750.056 3.1341887272257695e-19
22800.056 4.792461036418913e-19
22850.056 2.400963320179777e-19
22900.056 2.275265372610759e-19
22950.056 1.7676704236706603e-19
23000.056 8.60881016648321e-20
23050.056 5.2235117136436474e-20
23100.056 9.139972896949146e-19
23150.056 9.685587085522037e-19
23200.056 1.6507019702777436e-19
23250.056 6.338410397870683e-19
23300.056 1.8788491587961674e-19
23350.056 4.786033025658419e-19
23400.056 3.0285685814379294e-19
23450.056 2.422753510882144e-19
23500.056 8.99345100737166e-20
23550.056 1.4097638771870643e-19
23600.056 3.4584808489922084e-19
23650.056 5.713739830156092e-19
23700.056 8.577473601698958e-20
23750.056 2.0855676074540988e-19
23800.056 6.416480405364962e-19
23850.056 2.898560858792711e-19
23900.056 5.405585412597653e-19
23950.056 4.358247038690038e-19
24000.056 1.1212514774699807e-18
24050.056 1.4264715890100559e-18
24100.056 2.3851218508100992e-18
24150.056 3.648426225300057e-18
24200.056 4.3399698129999354e-18
24250.056 5.015068743200398e-18
24300.056 9.276674258000809e-18
24350.056 1.452881475299981e-17
24400.056 2.3015273408001347e-17
24450.056 3.726937903500253e-17
24500.056 5.333940361100111e-17
24550.056 8.305653971700438e-17
24600.056 1.2911440115500356e-16
24650.056 1.9420315175000778e-16
24700.056 2.45997878108004e-16
24750.056 3.779939235700156e-16
24800.056 5.307300877800217e-16
24850.056 6.678357441600125e-16
24900.056 9.022172046900382e-16
24950.056 1.2368323733900505e-15
25000.056 1.6571914705999983e-15
25050.056 2.046120731700088e-15
25100.056 2.5790960086000452e-15
25150.056 2.7121415619199585e-15
25200.056 3.743933335700229e-15
25250.056 3.740205135299853e-15
25300.056 3.290976153299928e-15
25350.056 3.102273482920193e-15
25400.056 5.550822064699786e-15
25450.056 3.2733081835998932e-15
25500.056 3.0025486618999984e-15
25550.056 5.104254408600427e-15
25600.056 2.6522380546894462e-15
25650.056 1.4961882389100132e-15
25700.056 1.6265638329310228e-15
25750.056 1.1829702450660611e-15
25800.056 2.8268087819501e-15
25850.056 9.637532842718346e-16
25900.056 1.1543246030601056e-15
25950.056 9.669939007301344e-16
26000.056 2.713598857890036e-15
26050.056 1.2683189133997644e-15
26100.056 2.4286880650002323e-15
26150.056 2.2082208361197664e-15
26200.056 2.115887711140379e-15
26250.056 4.324262628209738e-15
26300.056 2.5181634471802025e-15
26350.056 7.327747887801306e-15
26400.056 1.444055579939898e-14
26450.056 9.310829386900699e-15
26500.056 1.4371034218198674e-14
26550.056 7.159176083901038e-15
26600.056 6.384100570299315e-15
26650.056 2.922994607589566e-15
26700.056 3.040575859820434e-15
26750.056 4.935957629499764e-15
26800.056 7.313705255400936e-15
26850.056 9.384788342000388e-15
26900.056 1.5048532147499324e-14
26950.056 6.033693541800724e-15
27000.056 1.578129744340014e-14
27050.056 2.470940997299973e-14
27100.056 6.081120267399525e-15
27150.056 1.968826423709988e-14
27200.056 6.3431528048000656e-15
27250.056 9.157929043401636e-15
27300.056 4.034528112700062e-14
27350.056 1.8420887840898667e-14
27400.056 7.158231518299053e-15
27450.056 3.315356004100387e-14
27500.056 3.300427025699727e-14
27550.056 1.4222175380299585e-14
27600.056 3.007541555619874e-14
27650.056 1.709235358180135e-14
27700.056 1.792014463749972e-14
27750.056 4.2325286617001364e-14
27800.056 3.346777779500153e-14
27850.056 3.750083306899794e-14
27900.056 5.260077892200932e-14
27950.056 6.78661420779959e-14
28000.056 7.427529817099586e-14
28050.056 2.6317665349004544e-14
28100.056 8.539074113101176e-14
28150.056 6.676090246199183e-14
28200.056 3.8295996105995863e-14
28250.056 1.1076082445200192e-13
28300.056 8.461719385699972e-14
28350.056 2.5668962625900727e-14
28400.056 7.422495237590015e-14
28450.056 4.98416529665939e-14
28500.056 2.81032529070001e-14
28550.056 3.542617546361219e-14
28600.056 6.69019720548627e-14
28650.056 1.5483112987412653e-14
28700.056 9.958295021320175e-14
28750.056 1.150905959599055e-13
28800.056 2.1142068223989543e-14
28850.056 2.0206350778601006e-13
28900.056 4.271547947540327e-14
28950.056 3.235600319671176e-14
29000.056 2.0704635702259557e-14
29050.056 5.5962451065199224e-14
29100.056 2.286061860467132e-15
29150.056 8.437369077973914e-15
29200.056 1.5529878313500455e-13
29250.056 4.851502682217467e-14
29300.056 1.3809897798745245e-14
29350.056 1.3958524649598747e-13
29400.056 1.066686983006289e-13
29450.056 1.5518663177624053e-14
29500.056 1.8582535656981456e-13
29550.056 9.827762972605712e-14
29600.056 2.5121300293337644e-14
29650.056 1.45724150606526e-13
29700.056 7.35093767877367e-14
29750.056 2.4418497538777955e-13
29800.056 5.80012293761507e-14
29850.056 3.5858347921100515e-13
29900.056 1.0859854772599447e-13
29950.056 3.542832070094142e-14
30000.056 2.290737793918525e-16
30050.056 5.324270212942235e-14
30100.056 2.1023535848502398e-13
30150.056 2.56186107787288e-13
30200.056 6.664444995299841e-13
30250.056 7.122574500070646e-13
30300.056 6.822995501298848e-13
30350.056 1.9655318158165724e-13
30400.056 1.2736993808002607e-12
30450.056 1.5402690360496964e-12
30500.056 2.092782388468767e-13
30550.056 2.5944103901819403e-13
30600.056 4.7074728057999295e-12
30650.056 2.3919039341399287e-12
30700.056 2.1198140818756126e-13
30750.056 1.6126422855139791e-12
30800.056 2.784480555709702e-12
30850.056 2.497882311500183e-12
30900.056 3.444126070144064e-13
30950.056 1.158445599170174e-12
31000.056 1.7265057571799094e-12
31050.056 3.732129788281202e-13
31100.056 7.541922604792187e-14
31150.056 7.547518480103226e-13
31200.056 3.2585389086001485e-12
31250.056 1.8760345846695663e-12
31300.056 2.8836536751799785e-13
31350.056 2.0884106879901683e-12
31400.056 1.1702765499999473e-12
31450.056 1.1110436507098972e-12
31500.056 3.966830914020856e-13
31550.056 8.350240094658889e-13
31600.056 5.184770806560114e-13
31650.056 2.446127873300058e-13
31700.056 2.497266870990232e-13
31750.056 5.712798489524953e-14
31800.056 1.0769156135098676e-13
31850.056 1.1787828405888161e-14
31900.056 3.1741435036325757e-14
31950.056 7.364139814227557e-15
32000.056 6.450626089633121e-15
32050.056 2.4710420255605204e-15
32100.056 1.288340928867208e-15
32150.056 7.21358478660713e-16
32200.056 1.5608965126974494e-16
32250.056 3.3566020125103536e-16
32300.056 2.1908149414126495e-17
32350.056 7.766902581765958e-17
32400.056 2.125553605409456e-18
32450.056 4.084811487980105e-17
32500.056 1.7746468114190566e-18
32550.056 2.1991354008080348e-17
32600.056 5.08101415496883e-19
32650.056 2.0853526676300898e-17
32700.056 6.84234839341424e-19
32750.056 8.447949922651357e-17
32800.056 1.1855724326000599e-17
32850.056 9.02281919661287e-16
32900.056 2.5598249362826847e-16
32950.056 1.0964093948520137e-15
33000.056 2.2125905141774855e-16
33050.056 3.532889861057698e-17
33100.056 3.507899034724779e-18
33150.056 1.6944775593134814e-20
33200.056 4.420584046383317e-18
33250.056 2.3461700227749205e-17
33300.056 8.668197926580689e-16
33350.056 1.554639517682782e-16
33400.056 1.5899099402999325e-15
33450.056 1.3665303468317133e-17
33500.056 4.551504893805285e-16
33550.056 5.140424677640421e-17
33600.056 2.9493966735379417e-16
33650.056 5.406893786938288e-16
33700.056 3.312217197286159e-17
33750.056 7.780036538009084e-16
33800.056 8.112206291689756e-18
33850.056 4.036350456735377e-16
33900.056 3.9116184798140364e-16
33950.056 1.0081814403859233e-15
34000.056 4.0552779099109055e-15
34050.056 5.261809577745236e-16
34100.056 8.049986526109517e-15
34150.056 1.7132702608192134e-15
34200.056 2.1618765951259025e-14
34250.056 7.06399483777597e-15
34300.056 1.2206187603324994e-14
34350.056 8.822188647659417e-14
34400.056 6.104272594718999e-15
34450.056 4.798324326720642e-14
34500.056 9.946882842112266e-15
34550.056 1.2770314980890818e-13
